I,II,III,aVR,aVL,aVF,V1
0.009934283,-0.008475194,-0.013569894,-0.0028684642,0.0069657248,0.0034174705,-0.03961144
-0.0023882203,-0.008691217,-0.0057329237,-0.00027605242,0.0060435375,0.00062217424,-0.020722648
0.013707897,-0.03515874,-0.011193495,0.0020400234,-0.017976271,-0.007868975,-0.010986442
0.031591773,-0.0054706284,0.0033395365,0.020068405,0.01272286,0.0010806422,0.004124554
-0.0031748586,0.01616479,0.02545178,-0.013436137,-0.028293444,0.011325042,0.021991456
-0.0027975182,-0.023599422,-0.0135356225,-0.015041719,-0.011198466,-0.0006380216,0.01576794
0.033846464,0.023231858,0.022278616,0.0269946,-0.03771955,0.010657559,-0.02132429
0.017987853,0.0123946555,-0.012994282,-0.0066137356,0.03381169,-0.014094217,-0.004795086
-0.006373413,-0.011668592,-0.013936469,-0.022244632,-0.0016149151,-0.009061798,0.0045435866
0.0142441485,0.0005623547,0.01976484,-0.0063096513,0.046730626,-0.0112934625,-0.001851195
-0.005498582,0.035736207,0.022208499,-0.0028312828,0.01982877,-0.0075328555,-0.0016161327
-0.0051680524,0.0188175,0.021174742,0.0352458,0.013108507,0.029890163,-0.030308323
0.0093625,0.0046989275,-0.021792693,0.02301978,-0.0072012995,0.01904403,-0.018531429
-0.033365704,0.00014623575,-0.0044191177,0.027850315,-0.016027099,-0.01663856,-0.0031588948
-0.029221877,0.0068086614,0.021736251,0.021675954,0.015735911,0.014026446,-0.056588035
-0.0055927676,-0.004582288,0.00648382,0.024577856,0.0042227027,-0.0021586635,0.01846587
-0.014227217,-0.036065586,-0.015444452,-0.007732237,-0.020756,-0.007618286,-0.021424176
0.0126906885,0.0472493,0.015572101,0.002433699,-0.023931427,-0.023309046,0.020142505
-0.011378494,0.009888488,-0.0075141573,-0.013016319,-0.012392087,0.02622036,0.018760309
-0.021087937,0.015121083,0.043048635,0.0029483764,0.04357748,-0.020119125,-0.0037157238
0.03684716,0.0063760295,0.038431015,0.021216284,0.051799744,0.006494921,0.02754515
0.0033945988,-0.006792211,0.019992074,0.010601791,0.0120099075,-0.0110161,0.022774072
0.009636517,0.0045674634,0.03550609,0.03451557,0.0112648085,0.023802832,0.0021067234
-0.0198333,-0.023326233,0.00995749,-0.014166653,0.0019352555,0.0019746264,0.0002264706
-0.0018504047,0.05457898,0.024346,0.019042017,-0.009652457,0.0063479966,0.030981906
0.01163116,-0.015277532,0.038967114,-0.015553348,0.03691629,0.007398023,0.014052985
-0.013231839,-0.010851293,0.014698006,0.011671563,0.04725956,0.015839439,0.030681977
0.017677179,0.0013580343,0.005059475,0.024969887,-0.007705163,0.010423314,-0.037616264
-0.0014745145,0.036299773,-0.02355418,0.006248208,0.008881492,0.009672795,0.012507961
0.0050792755,0.01120333,0.00925048,0.021935683,0.0019158245,0.00054511096,-0.020635031
-0.0007462458,-0.013434829,0.02775635,-0.00790676,0.0028831048,-0.020206701,0.0107721165
0.048708025,0.03674923,0.03057513,-0.021611338,0.035380628,-0.010708557,0.025938867
0.011766927,0.026656885,0.022124173,0.023177464,-0.014202359,0.026406467,0.046819676
-0.008743108,0.023179809,0.0015851281,0.047291316,0.021740504,0.006294721,-0.0063522244
0.02923607,0.027099857,-0.02675126,-0.0071357265,0.027349934,-0.0004950234,0.002271076
-0.011257821,0.06104629,0.0032547505,0.037602935,0.010316029,-0.01495551,0.011248394
0.017710017,0.057234645,0.007445848,0.014401214,0.0313941,-0.020860197,-0.0059578763
-0.025287157,0.00017193954,0.007647667,-0.012807584,0.016859284,-0.0001578912,0.03347744
-0.012284172,0.04675725,0.026650677,-0.008350557,0.03862215,0.032040607,0.012877659
0.018589875,0.022316013,0.05436618,0.014968345,-0.015791457,0.0035112456,0.01709179
0.029794874,0.025007458,0.017496126,0.0069362954,0.008050036,0.023035252,0.027429003
0.018825585,-0.018447198,0.011063583,-0.01086004,0.013961957,0.0033370226,0.013963989
0.013457713,0.0123629635,0.010586242,-0.018110108,-0.03767347,0.028548012,0.35524336
0.01012084,-0.00011355846,0.018630609,-0.0007914732,-0.005576141,0.36204973,0.37726495
-0.013055521,0.033076096,-5.0956456e-05,0.0203911,0.00024293366,0.3512147,0.36820388
0.0024898052,0.0383083,0.019290661,0.016758675,0.39167428,0.37712136,0.39415795
0.008045444,-0.024231507,0.026274467,0.3590607,0.3650705,0.4257068,0.41847435
0.03877195,0.017188808,0.021823226,0.3794718,0.36923066,0.43122715,0.3814375
0.024872905,0.04043777,0.38031572,0.40247992,0.40821266,0.41143703,0.38055325
-0.016889485,0.0146377385,0.38594648,0.39570227,0.36565945,0.4051144,0.41830924
0.025223514,0.38693205,0.34784412,0.3914273,0.36262965,0.41995323,0.40794975
0.01141044,0.3852543,0.40193245,0.41834038,0.40274,0.4261003,0.42977807
0.35910797,0.3908555,0.38158864,0.38639754,0.38681373,0.4247203,0.44124267
0.39054766,0.38429704,0.3788055,0.40680033,0.39324734,0.43995652,0.3975044
0.40452,0.3710012,0.38424462,0.41286814,0.438458,0.4407849,0.4595689
0.40802848,0.3784188,0.42051253,0.3976275,0.449931,0.43564504,0.5043462
0.3780372,0.4204589,0.41279346,0.41932982,0.45348316,0.42326325,0.5347978
0.39397067,0.41198805,0.38890275,0.39147142,0.46504647,0.51999754,0.52937925
0.41202703,0.41405904,0.43729267,0.47633868,0.47272784,0.5524412,0.5386643
0.43007195,0.41348404,0.4040208,0.42435113,0.48712268,0.5429024,0.5905311
0.40604812,0.4208916,0.44058046,0.47970447,0.54572535,0.5564447,0.56979555
0.41689923,0.45286697,0.44741386,0.5299861,0.53298795,0.5515103,0.5880696
0.40337572,0.43005592,0.46510288,0.5473359,0.5353331,0.54253244,0.5793655
0.40637642,0.41466913,0.56341016,0.5329288,0.5680278,0.56532574,0.5949208
0.45125633,0.46098956,0.5071073,0.55337983,0.5285861,0.5558413,0.59684294
0.466742,0.44654056,0.5398391,0.5685959,0.53437495,0.5605729,0.5993583
0.4426936,0.53240746,0.54171133,0.5750886,0.5881046,0.612234,0.62198323
0.46862525,0.570256,0.56212264,0.5833496,0.59105396,0.5853546,0.60833627
0.5353739,0.5438911,0.5638292,0.5663873,0.58972543,0.58437246,0.6560686
0.5214137,0.5561554,0.55839,0.56988835,0.5749108,0.6368162,0.6345275
0.5476028,0.5327328,0.5624037,0.55319387,0.61272806,0.62581897,0.5972673
0.577077,0.55772614,0.5545275,0.6009623,0.6166225,0.6069572,0.621057
0.55142254,0.57998574,0.60210127,0.6174032,0.60970867,0.6276126,0.6368463
0.5891348,0.54222953,0.5968669,0.6331688,0.58926195,0.6188195,0.6338971
0.5110289,0.5827605,0.611227,0.61188066,0.6089275,0.61395854,0.65063137
0.5853213,0.5860296,0.59170115,0.5952087,0.63863015,0.6413831,0.656504
0.5759603,0.589972,0.58965725,0.5811894,0.652674,0.62927943,0.61682343
0.5734506,0.61488307,0.5859588,0.6403883,0.62367064,0.6409494,0.672869
0.5863517,0.6056823,0.61927956,0.5878825,0.62909245,0.6633374,0.64032316
0.5497241,0.6332675,0.5957254,0.6210774,0.6345489,0.6644008,0.64113224
0.58991313,0.5884046,0.6577574,0.627312,0.64678854,0.63823575,0.6436365
0.6061511,0.615422,0.5987359,0.634144,0.6329875,0.66181314,0.6741363
0.63313913,0.6186757,0.63430744,0.6398093,0.58985263,0.6321833,0.6547456
0.59765744,0.59973896,0.6639565,0.6452407,0.6745276,0.6661888,0.6487139
0.59616286,0.64424145,0.64822537,0.5973785,0.68930954,0.662382,0.6551789
0.60647476,0.6754535,0.6432192,0.64900947,0.6437182,0.6690142,0.62921214
0.63886166,0.6323164,0.62363535,0.6069773,0.6369898,0.6572985,0.64948493
0.6310379,0.6463047,0.61850536,0.6688867,0.65774304,0.7065315,0.6425328
0.6176418,0.6412929,0.66451305,0.6456339,0.6587022,0.6482162,0.66271114
0.6421405,0.62857884,0.6820413,0.6159095,0.68413436,0.68685436,0.68192214
0.63731813,0.60953224,0.6457819,0.6448993,0.6668926,0.6477593,0.6800331
0.6581135,0.6347772,0.6342519,0.65173376,0.6513268,0.6792387,0.6941815
0.6279254,0.6238464,0.61017704,0.68871945,0.6419939,0.6812146,0.6895906
0.63850033,0.68840754,0.64186496,0.67042625,0.6866607,0.67113364,0.6579775
0.6401591,0.6545097,0.6611791,0.67478794,0.6821271,0.6602514,0.6683434
0.6215386,0.6522259,0.6972383,0.6927463,0.6919397,0.67289275,0.66649777
0.65939844,0.67910516,0.6803534,0.6682387,0.651759,0.67511106,0.6230896
0.6612231,0.6409099,0.6744582,0.6861018,0.70808846,0.7050592,0.6405026
0.65848863,0.64987504,0.6616505,0.6853683,0.63644546,0.6510923,0.660015
0.65593696,0.66828537,0.65911627,0.6464513,0.6853139,0.6564889,0.65819234
0.6344211,0.6890548,0.69984937,0.7019464,0.63253564,0.67215985,0.66996354
0.65627253,0.67991215,0.67653805,0.6442032,0.6543293,0.65999234,0.6668348
0.6596448,0.6760873,0.6310879,0.69089556,0.70056856,0.66155183,0.6197719
0.6521236,0.6737686,0.6601156,0.6419624,0.6849913,0.68319046,0.6629614
0.6664695,0.68113923,0.6566982,0.6839011,0.65625983,0.60340106,0.65334594
0.67915815,0.6779386,0.66304326,0.7085041,0.65543246,0.6456634,0.6592085
0.7100383,0.65391976,0.6851625,0.66621304,0.6662518,0.6203848,0.6648284
0.67689896,0.675897,0.67152107,0.6643699,0.67275816,0.62872046,0.6371681
0.6795065,0.65380037,0.6717284,0.6805482,0.6855494,0.69792956,0.6612581
0.6736696,0.67703706,0.6989612,0.66041225,0.6492428,0.6587975,0.61466616
0.6374411,0.6657863,0.658019,0.70184547,0.62378937,0.6626603,0.60943615
0.6757991,0.7260134,0.70831954,0.66762286,0.6566309,0.6386124,0.6326135
0.6779016,0.6740972,0.6565278,0.6554948,0.6416189,0.6517915,0.6121419
0.7261843,0.64632255,0.6704879,0.6490323,0.62184155,0.5974817,0.6200229
0.6731496,0.67107916,0.6616617,0.63894016,0.6507059,0.64957774,0.64971846
0.6829599,0.6833487,0.6681684,0.6426273,0.6372012,0.6082181,0.6125947
0.6760219,0.7054713,0.672839,0.645575,0.6441185,0.60959774,0.6036336
0.6529848,0.65910137,0.6707044,0.6400655,0.6164391,0.6257436,0.57647264
0.69871235,0.6379726,0.64488006,0.6337092,0.64021814,0.6171951,0.55412775
0.6902475,0.6845334,0.6352334,0.68572944,0.6001154,0.607595,0.5807524
0.690238,0.63900536,0.70533985,0.6198572,0.60569507,0.5734897,0.5974245
0.6552941,0.6561605,0.64301753,0.63992584,0.61300397,0.5974112,0.56332237
0.7004584,0.6578436,0.6639392,0.64520633,0.64813286,0.60910577,0.57131684
0.6431427,0.6595624,0.6148975,0.6421506,0.6242505,0.5735426,0.585139
0.6815509,0.6725447,0.638392,0.6243998,0.6251801,0.6046091,0.57777816
0.71211416,0.64274293,0.6382137,0.6166136,0.6268865,0.5547967,0.551283
0.64684325,0.6484438,0.6468278,0.6261479,0.66533834,0.5661461,0.19223472
0.65353507,0.650985,0.57937765,0.6179715,0.5886801,0.59031284,0.15792106
0.6649197,0.6514643,0.6334472,0.60282224,0.6106545,0.5393982,0.17509975
0.65078187,0.64748156,0.6032707,0.5719618,0.5967308,0.5673569,0.18144755
0.6276225,0.6511494,0.6287382,0.58887804,0.59046566,0.2299416,0.16932453
0.65765154,0.65606266,0.59735626,0.5701833,0.599934,0.19337422,0.19059855
0.63253963,0.6436484,0.59665173,0.5744911,0.54980636,0.17886975,0.22307096
0.6606244,0.64133143,0.60381556,0.5830625,0.54180366,0.17336434,0.21435234
0.629993,0.59693444,0.58361775,0.5839821,0.5516007,0.21427275,0.18798481
0.676472,0.6257587,0.59038067,0.6066729,0.18816943,0.21302907,0.19775744
0.6267636,0.6303767,0.57110304,0.5544211,0.19770832,0.21574906,0.16661009
0.63280714,0.6312559,0.5532399,0.57461786,0.22206342,0.18532738,0.20942974
0.6522035,0.5985799,0.60505015,0.5590532,0.18067116,0.20591548,0.14782721
0.6078666,0.5948564,0.5534143,0.57251704,0.18352194,0.18331206,0.196195
0.6334506,0.5920269,0.5702638,0.20498554,0.19243924,0.16571194,0.18667598
0.65132946,0.60957175,0.58325696,0.17283252,0.18368055,0.2048959,0.1604271
0.5891908,0.61471957,0.5501231,0.15804072,0.14921737,0.21408461,0.17010354
0.62105644,0.5809565,0.54000425,0.1981849,0.17510252,0.15994598,0.1502847
0.6184553,0.60219526,0.5549823,0.18080747,0.19961749,0.15847664,0.14978345
0.6246594,0.5813038,0.21771927,0.17114608,0.21374361,0.17892902,0.1383983
0.5799219,0.57101583,0.17155626,0.16473597,0.16098106,0.19607343,0.18413003
0.57376325,0.56381184,0.19148278,0.1926018,0.15992698,0.15305382,0.1914049
0.60599744,0.57738173,0.15934038,0.21879108,0.18271536,0.17900823,0.12253856
0.59676033,0.5632446,0.18559238,0.17967832,0.13955608,0.16135597,0.2009767
0.5909695,0.59640795,0.19356844,0.1988325,0.17108557,0.18583712,0.1623661
0.5879057,0.18009593,0.17518185,0.1841179,0.14414121,0.15447879,0.16675952
0.5622727,0.207102,0.1824868,0.1594729,0.20508091,0.1844491,0.12983155
0.5752953,0.18571955,0.16277695,0.19901557,0.1611117,0.16438638,0.18397558
0.5711705,0.17844567,0.1917607,0.16144617,0.2083151,0.14730719,0.15980592
0.545564,0.19510633,0.21057375,0.18275544,0.19625089,0.1657854,0.17678265
0.59159285,0.19752759,0.16672108,0.174438,0.15973857,0.124176644,0.17659257
0.20870322,0.2525657,0.17537828,0.19803846,0.14987312,0.15014225,0.17700703
0.17503421,0.18990609,0.19701435,0.15788579,0.16605224,0.16642435,0.13544367
0.21159181,0.17033745,0.21030122,0.18570192,0.16640502,0.12255823,0.14231619
0.17853445,0.19771877,0.15525618,0.15988852,0.1739602,0.10485305,0.13227473
0.21330418,0.15004902,0.18076976,0.16522697,0.15001072,0.10773703,0.16041203
0.220236,0.18895194,0.18879882,0.10147476,0.17893943,0.17928235,0.14713803
0.18011947,0.19032708,0.18005142,0.21471599,0.16775419,0.14938751,0.15980293
0.21523726,0.2050806,0.13147901,0.18254642,0.15404256,0.13842449,0.15858506
0.20362975,0.20780984,0.1899253,0.15481608,0.1449798,0.16609693,0.09966668
0.2111877,0.17738187,0.20914556,0.14626461,0.15386099,0.13719451,0.08560056
0.23202294,0.18352422,0.17991449,0.1574069,0.13952726,0.14871278,0.07790754
0.1884883,0.17026497,0.15574902,0.18018755,0.1553098,0.14188981,0.051810153
0.17759895,0.16204499,0.16486637,0.1265068,0.15409529,0.12995774,0.06649399
0.17412986,0.18979125,0.20925324,0.15998434,0.15583654,0.14323628,0.057327382
0.1748195,0.15707736,0.19074897,0.19666587,0.18411417,0.15076762,0.072423674
0.18877858,0.17318118,0.18401413,0.13698113,0.14429903,0.056705367,0.05297557
0.19629814,0.16046412,0.1769753,0.15964535,0.16517083,0.051492464,0.07028212
0.19413325,0.19022475,0.15522774,0.20045255,0.14777459,0.05415254,0.062348895
0.20423754,0.21409313,0.16301294,0.16734976,0.1364956,0.015342882,0.052657254
0.18701872,0.15083653,0.16401069,0.15551782,0.13692933,0.067259796,0.06540133
0.21486484,0.13858233,0.17507678,0.16139749,0.13616307,0.03771298,0.1160246
0.17950742,0.17189044,0.19275166,0.14148627,0.06778628,0.0747853,0.04848019
0.23818158,0.17341901,0.18340035,0.17370899,0.043299343,0.060677275,0.057486884
0.19524069,0.17616694,0.131079,0.13791713,0.033472896,0.06488212,0.049417455
0.16450515,0.16152823,0.162353,0.10488264,0.0761587,0.07707934,0.051808428
0.15912355,0.16507535,0.17098856,0.13437854,0.081327386,0.044834435,0.0796804
0.1890564,0.17504483,0.16698499,0.12098463,0.07856888,0.07104114,0.07797381
0.173776,0.18708315,0.14035241,0.05832264,0.06704596,0.06929894,0.06382925
0.19133666,0.1257273,0.20952392,0.059054278,0.07958045,0.06054034,0.08476189
0.18530622,0.15597749,0.123980545,0.08847295,0.078793064,0.04596076,0.08039335
0.17314348,0.16613513,0.12611535,0.078717954,0.080564685,0.07671686,0.061565414
0.15639685,0.14197725,0.15068485,0.070364095,0.047907967,0.07916787,0.03442149
0.14174291,0.19341354,0.18656029,0.06532564,0.043445513,0.06765659,0.081980206
0.1617915,0.14451134,0.12568966,0.044492222,0.057897996,0.044263333,0.06906267
0.1865069,0.15479954,0.060636714,0.022329777,0.0656056,0.0554043,0.06639775
0.17229344,0.16512862,0.087782115,0.068499446,0.06139782,0.06502959,0.056915283
0.14170535,0.14054267,0.06616102,0.08241109,0.02898446,0.08028816,0.08141124
0.16866857,0.11377495,0.06010726,0.06463266,0.10123319,0.03512955,0.073769264
0.1714728,0.1404497,0.078392126,0.056382377,0.061598543,0.055803396,0.062342905
0.14462785,0.1679068,0.072808996,0.07664868,0.070812725,0.059305184,0.042849544
0.1638955,0.13885461,0.08824562,0.065970205,0.09252783,0.06597242,0.088995434
0.16047901,0.12691812,0.09374348,0.10162899,0.021014657,0.041887596,0.0800122
0.13492751,0.08670383,0.07433045,0.092844956,0.05795651,0.06383973,0.07329845
0.1633934,0.061850205,0.074300356,0.087655865,0.06072336,0.062256034,0.015330224
0.16588312,0.05853683,0.07302227,0.08389473,0.062013846,0.04798821,0.06798216
0.17473772,0.07200254,0.07879602,0.043210067,0.06554368,0.066654064,0.06418934
0.17254189,0.0847008,0.07038921,0.082545675,0.09822849,0.05846242,0.056915887
0.122281946,0.11719147,0.06954503,0.077083714,0.08302638,0.07946892,0.0846419
0.12942906,0.08637233,0.093760155,0.0819561,0.08898831,0.052121058,0.08412481
0.15681767,0.09329382,0.10041935,0.079949215,0.07103943,0.07189371,0.07883352
0.080641165,0.060246125,0.04021439,0.0794207,0.042377986,0.054197673,0.09112327
0.080933824,0.050115507,0.070833296,0.124650195,0.029038928,0.058637783,0.0501869
0.14795391,0.07214592,0.057125397,0.069375575,0.04031113,0.07684512,0.061826203
0.0825825,0.073308095,0.064945266,0.08989144,0.078360006,0.07585905,0.07266054
0.0941404,0.04985884,0.07947942,0.062009294,0.07206449,0.06308865,0.05898905
0.09077251,0.06818658,0.08508124,0.0875053,0.0674892,0.06630426,0.08623586
0.084982656,0.07994118,0.0697123,0.09074123,0.064583294,0.042882707,0.061510816
0.06591079,0.07942404,0.033949368,0.07950469,0.11245061,0.100271456,0.09818357
0.08765587,0.082562245,0.053175572,0.105861425,0.056018412,0.086225614,0.053853296
0.057279263,0.07855506,0.09066576,0.055050246,0.09129216,0.08576473,0.11537544
0.068257645,0.06285384,0.018185485,0.063249595,0.073032275,0.04109337,0.11357996
0.06354395,0.06297321,0.096999764,0.07749882,0.07203244,0.061341424,0.07135616
0.07514487,0.049528364,0.08393199,0.09112353,0.09704015,0.06681647,0.0964308
0.12005568,0.109458014,0.10008603,0.07735111,0.10301312,0.035141286,0.06575395
0.036671285,0.0742856,0.0700452,0.09973177,0.0692256,0.09181559,0.09428232
0.087994814,0.06977255,0.033041503,0.061035816,0.090253666,0.1033473,0.07075004
0.04226726,0.055945735,0.08312883,0.051710006,0.0817994,0.115760274,0.04881278
0.06533384,0.13348565,0.10026555,0.08093505,0.07492123,0.05385481,0.00411612
0.09680134,0.053555768,0.09351676,0.07347872,0.079107426,0.077368796,0.06964806
0.076556705,0.06669415,0.062017273,0.08612838,0.061510928,0.10172747,0.08085235
0.053963915,0.08383555,0.077254035,0.07497077,0.06939682,0.07044644,0.10212514
0.06145937,0.0877697,0.06510872,0.06896505,0.06415274,0.064425685,0.07649794
0.089602955,0.09516964,0.05962567,0.07451224,0.09403853,0.038690645,0.0960692
0.06164814,0.11240764,0.095363244,0.07683245,0.07435145,0.098907925,0.06717664
0.08082803,0.086622015,0.05254822,0.07039924,0.050544582,0.07611365,0.06975328
0.0776526,0.05562055,0.05886484,0.07267853,0.062272422,0.06215433,0.097821884
0.063950375,0.071843475,0.054901864,0.06891051,0.012997085,0.08265953,0.027688889
0.12010138,0.08337914,0.047417544,0.0943558,0.06733264,0.080282606,0.07748217
0.090139896,0.11882604,0.0803898,0.08134194,0.078214414,0.0808267,0.06946229
0.03719658,0.049743325,0.10092949,0.12283448,0.07497672,0.07335747,0.104911655
0.08166533,0.10198778,0.07423871,0.08115034,0.11753933,0.11038341,0.06737132
0.06493622,0.08177024,0.048056997,0.0671548,0.08967007,0.07549876,0.08850365
0.095455214,0.09516316,0.09520543,0.13182005,0.08901558,0.11079299,0.09683689
0.06278961,0.07660013,0.11235406,0.08691255,0.045774642,0.08992236,0.048788104
0.076577656,0.062023733,0.06594754,0.09867488,0.071579546,0.08589579,0.07608498
0.08920337,0.09412108,0.06953254,0.09094568,0.06937037,0.07683813,0.0704709
0.09664884,0.09242236,0.08964695,0.09179396,0.06361212,0.09881287,0.098259605
0.0555568,0.09900387,0.112000205,0.09027581,0.06356511,0.08182256,0.09306436
0.07310056,0.07952449,0.0693939,0.05774889,0.043628123,0.061147958,0.07512654
0.0705184,0.068020865,0.053368308,0.087367885,0.05450024,0.06070746,0.05906914
0.067176305,0.049067147,0.092871256,0.05374566,0.09772476,0.08869258,0.10100582
0.11577641,0.0968548,0.09644869,0.07698008,0.07760903,0.06231975,0.07911427
0.08879026,0.089168414,0.08081326,0.06617828,0.07056258,0.07944601,0.0483231
0.0556951,0.061597127,0.069750115,0.08806218,0.08080456,0.10205647,0.05026517
0.09949102,0.07036231,0.10102136,0.087816305,0.10448159,0.08721318,0.08988645
0.12379675,0.07201845,0.09191435,0.09097654,0.08143784,0.06691093,0.055837505
0.10222162,0.05191263,0.06620361,0.08731825,0.0923798,0.10977207,0.11876527
0.05140245,0.0654362,0.08277174,0.06965334,0.06485775,0.09274735,0.063048445
0.072321534,0.05932961,0.054972067,0.076786146,0.06963362,0.102362074,0.081999004
0.10755964,0.07397184,0.09593923,0.100629345,0.08930096,0.036870252,0.08540366
0.06828206,0.0676615,0.07719078,0.103792585,0.12028853,0.08905251,0.0678479
0.091524705,0.050108217,0.0739341,0.059712652,0.111243814,0.09949147,0.037851773
0.09835268,0.1233118,0.08220251,0.05224145,0.09451656,0.11686577,0.0866779
0.0645319,0.10812132,0.08387666,0.06853272,0.086099185,0.053794134,0.06800571
0.08208933,0.06769945,0.10117844,0.10418399,0.11130122,0.10740212,0.085610606
0.01866263,0.0889364,0.09530979,0.10778566,0.09938154,0.11637558,0.08104136
0.06320718,0.092044234,0.08056675,0.065200694,0.03782169,0.043349154,0.08896076
0.07884934,0.10772242,0.09917406,0.09004688,0.06282208,0.09347252,0.1151381
0.059149608,0.06773317,0.092120014,0.120793894,0.09086808,0.09645769,0.07318161
0.116956875,0.10615078,0.07577665,0.092614874,0.048569296,0.0777685,0.074931756
0.055908,0.07355272,0.08201646,0.11294089,0.06655905,0.07470894,0.05119488
0.07591091,0.057994556,0.081747346,0.104686335,0.0707155,0.09806888,0.080808125
0.08752639,0.09939431,0.0950168,0.0667076,0.07978826,0.07261194,0.093108974
0.113935605,0.11092531,0.07776969,0.08131051,0.079361536,0.08076515,0.07544024
0.05659025,0.13706568,0.07749931,0.08600258,0.07952508,0.10155619,0.0936361
0.10876691,0.061509132,0.12487879,0.087586306,0.10200979,0.120584495,0.081953466
0.08590323,0.09967696,0.104493275,0.10402514,0.08039409,0.09645825,0.059653237
0.066262096,0.07769625,0.07068026,0.094065964,0.07819967,0.08856196,0.09213197
0.095326826,0.10175193,0.09750358,0.02736074,0.059101317,0.07575681,0.081968114
0.09025721,0.05686623,0.08864302,0.060019214,0.106762946,0.06606402,0.08873118
0.07446172,0.061210662,0.09429708,0.042718437,0.073036104,0.10865762,0.07512706
0.0880509,0.07113737,0.08940169,0.090162165,0.06491426,0.083585866,0.07354681
0.07913616,0.08842172,0.11063529,0.09165219,0.09110425,0.1098565,0.08999065
0.08929913,0.07420715,0.09394118,0.09269328,0.071689956,0.08043774,0.08241678
0.10045649,0.100394964,0.08597211,0.06803531,0.076694824,0.07422811,0.121699445
0.11911808,0.10793564,0.10824156,0.10088062,0.092566945,0.09581372,0.10337235
0.062824056,0.09957191,0.09224606,0.101905614,0.08105071,0.086049646,0.09848045
0.1304224,0.12013749,0.09019131,0.06265876,0.13399392,0.06365117,0.084212124
0.04890011,0.096258394,0.094222315,0.0586211,0.086445294,0.12428923,0.047421396
0.08508504,0.0637828,0.08624856,0.088118106,0.10047751,0.07558107,0.071968846
0.10006471,0.115565896,0.0884829,0.12413401,0.049464483,0.10685019,0.0753525
0.09409457,0.07637161,0.07674084,0.12246959,0.07126175,0.10531186,0.082975045
0.07619585,0.106858216,0.073626496,0.09991793,0.06691157,0.06346059,0.087982655
0.084661245,0.12029838,0.06885228,0.07422376,0.0697361,0.068775944,0.10194519
0.07913626,0.09813004,0.061156616,0.106733136,0.09730704,0.0829661,0.09445919
0.07738031,0.059244428,0.07157326,0.08011912,0.109878905,0.07185467,0.11235166
0.1063297,0.07097341,0.08585232,0.073987514,0.09623027,0.12386678,0.08309962
0.09664675,0.11596133,0.09156879,0.046627104,0.08497355,0.08550293,0.0946497
0.07581576,0.0862915,0.08424802,0.091721594,0.07705685,0.10746893,0.09655084
0.107832186,0.091431655,0.042726118,0.077242844,0.11211218,0.10011294,0.09475471
0.096151136,0.105181634,0.12149687,0.09193376,0.13143025,0.095285594,0.11564295
0.10642607,0.10409528,0.11189843,0.04418167,0.09286994,0.09097525,0.10624431
0.1029238,0.09590722,0.09924642,0.09372776,0.109118484,0.11507384,0.063943155
0.073912434,0.08631897,0.12864214,0.041869912,0.09735974,0.07399048,0.08820571
0.07944854,0.08439879,0.07110488,0.11241097,0.10576226,0.12517887,0.09037269
0.10575657,0.10796867,0.1285632,0.101248525,0.06751976,0.06506623,0.13384151
0.10317535,0.10203934,0.07166366,0.08539465,0.08120522,0.10659818,0.084372126
0.090705864,0.0859779,0.09589866,0.102378294,0.09903329,0.063020624,0.07147422
0.093625106,0.1129208,0.06580181,0.07171707,0.115528375,0.08496445,0.10004506
0.11698522,0.088851236,0.0917258,0.09287942,0.075069234,0.093298115,0.10137163
0.07975255,0.07455073,0.099307306,0.10747945,0.050917994,0.08185007,0.090108514
0.10267668,0.07655532,0.08864093,0.029848946,0.081769444,0.08810134,0.087329514
0.08784033,0.07230937,0.106161736,0.0829397,0.1120868,0.064144775,0.11086226
0.08767871,0.08658413,0.09401262,0.09157945,0.06035442,0.07228332,0.074960366
0.114154704,0.116853654,0.08173087,0.0882533,0.06864077,0.102144465,0.0853601
0.10883302,0.07622279,0.08098843,0.12146673,0.09544307,0.092918135,0.0818817
0.10873911,0.09623843,0.108687185,0.06999089,0.090149485,0.07865835,0.1143468
0.11872139,0.079478025,0.079536974,0.080188625,0.10450114,0.11909737,0.0983217
0.093173474,0.08754721,0.111061454,0.054436017,0.06817886,0.06835478,0.07145351
0.10653272,0.062692836,0.117347896,0.123099394,0.08639409,0.08566185,0.07360353
0.08682727,0.08862184,0.059658326,0.0881068,0.11693631,0.08291948,0.13050091
0.09965355,0.08929612,0.11582875,0.08440205,0.069312304,0.10547098,0.114834584
0.09070366,0.10411228,0.13451497,0.09225687,0.12284477,0.0942698,0.11013753
0.09538141,0.09790711,0.098481566,0.10616621,0.07209315,0.09127819,0.09368643
0.10547827,0.069607295,0.105556816,0.1005224,0.110562764,0.0566908,0.1237446
0.07734303,0.11539141,0.11444755,0.14666513,0.08624827,0.11100814,0.07163935
0.13568617,0.098044485,0.08832878,0.10291714,0.070940256,0.089481905,0.108897775
0.07384772,0.09793594,0.09761367,0.08466316,0.084030084,0.09628129,0.085102595
0.0698126,0.09391273,0.06781238,0.08286924,0.10499496,0.079125114,0.08911851
0.117385566,0.0838682,0.09699605,0.086368166,0.09408627,0.07610677,0.10873913
0.11018223,0.09870502,0.10431122,0.06431224,0.11671837,0.12433473,0.091477826
0.10695566,0.103985034,0.10479653,0.09527055,0.12318807,0.059008494,0.08577927
0.107163124,0.0596583,0.11590471,0.110265575,0.0709356,0.073512234,0.08469306
0.09447288,0.0839426,0.07922177,0.08245055,0.06959243,0.12432766,0.0549909
0.07689298,0.08973913,0.084185936,0.07869047,0.06874219,0.107653,0.11010214
0.09647307,0.100080386,0.13286713,0.12527588,0.07697305,0.08844773,0.07482437
0.08153129,0.11894075,0.092067964,0.06654487,0.11715882,0.12000646,0.13224272
0.11469313,0.07975592,0.09919141,0.053834368,0.10639797,0.104127936,0.08943848
0.09236444,0.08534635,0.09396539,0.07224755,0.084405035,0.09995879,0.12149438
0.07890914,0.0851684,0.07898547,0.06461043,0.09519703,0.09993032,0.059238464
0.089103505,0.07950067,0.12800181,0.10325574,0.12361733,0.10483599,0.11016088
0.103900634,0.088698275,0.08508798,0.088427916,0.13380222,0.10575585,0.115413114
0.08447693,0.11116747,0.07320572,0.091357686,0.10093911,0.13967088,0.1218227
0.079415075,0.074782774,0.086844675,0.118918166,0.04267386,0.09196163,0.06529871
0.10083993,0.10452247,0.05593206,0.082139485,0.101911925,0.09268524,0.08191181
0.10097084,0.062033467,0.083045766,0.1115733,0.11476648,0.07133365,0.10760171
0.086036615,0.08494872,0.07681291,0.12640193,0.100668125,0.09513753,0.09914432
0.08685731,0.08968829,0.10862665,0.08716483,0.11080838,0.13353582,0.10214527
0.10102031,0.12987651,0.08291102,0.11111977,0.10352062,0.11606901,0.08917358
0.06751748,0.09098312,0.114235245,0.09164281,0.07178626,0.085605815,0.12749514
0.06842838,0.052552786,0.12454734,0.11505962,0.078852884,0.09717848,0.14874697
0.082305886,0.056696992,0.11229828,0.06524499,0.09025173,0.070746005,0.09875437
0.092501566,0.097451106,0.09246275,0.06386027,0.118078806,0.07738812,0.10583894
0.10308303,0.10914029,0.09968717,0.08903952,0.08154719,0.0998537,0.09798975
0.126465,0.10446698,0.066458166,0.07917937,0.10607592,0.087068774,0.12263893
0.11420266,0.10040087,0.09437389,0.08671529,0.10312332,0.07615748,0.1136318
0.09394093,0.120384894,0.07993093,0.09274917,0.12886365,0.106936514,0.075812094
0.09684823,0.086436726,0.111115076,0.11162882,0.096394956,0.09558355,0.08497451
0.07726543,0.11521423,0.14877106,0.089162804,0.062220845,0.06596501,0.07713008
0.09703183,0.0647618,0.10739853,0.08092487,0.11033951,0.055899158,0.15129854
0.09171362,0.079387836,0.057663992,0.09045653,0.1402479,0.086086564,0.11019303
0.10402448,0.061429277,0.0903455,0.0821872,0.11181777,0.0658048,0.08565638
0.08110741,0.09215512,0.10010185,0.07897192,0.0818988,0.0602738,0.084140986
0.108119495,0.09680734,0.09947971,0.06547223,0.076093644,0.120311946,0.11383719
0.12846649,0.10009374,0.08319545,0.09920127,0.07875233,0.09585749,0.11591011
0.09571426,0.09912713,0.1027953,0.08651535,0.13795571,0.092580535,0.11385162
0.106000066,0.07941476,0.07311581,0.117291406,0.09141928,0.09419771,0.08945468
0.111843675,0.09423598,0.07914262,0.06909288,0.08478793,0.07528415,0.10415767
0.09008997,0.068165444,0.111030325,0.0872727,0.09494564,0.1063339,0.10033268
0.102668405,0.12545113,0.07787329,0.1344447,0.09184842,0.09557255,0.07946135
0.09850919,0.09218482,0.109021574,0.07946515,0.12961034,0.08310917,0.07972746
0.100280255,0.08854901,0.070937455,0.09359606,0.07803718,0.08617416,0.106566034
0.08293453,0.13017353,0.13369124,0.074077845,0.122007586,0.07384555,0.10232374
0.09895152,0.073616385,0.08297592,0.07149276,0.10090315,0.09033646,0.10952835
0.10848647,0.076014765,0.09405317,0.12947272,0.12266704,0.093733944,0.114346966
0.12761317,0.076665886,0.10520256,0.102011085,0.13024268,0.08994463,0.12857795
0.1178381,0.097295254,0.08734568,0.101326264,0.10034864,0.09975578,0.0831346
0.14177732,0.107346304,0.10158179,0.06478734,0.0924124,0.097143434,0.111318395
0.083426304,0.11356676,0.11028039,0.10594808,0.10009683,0.10338862,0.46781018
0.11627784,0.15027134,0.1180437,0.12197987,0.09693602,0.11769337,0.4532347
0.102555044,0.053899556,0.114718154,0.121877745,0.06574888,0.11074868,0.46843606
0.14273964,0.11111829,0.09550736,0.11231024,0.12999319,0.11803537,0.46665722
0.08283157,0.08785492,0.096064895,0.07640782,0.10391323,0.08204285,0.5208157
0.082255654,0.08732178,0.14603226,0.105312556,0.0757881,0.08887779,0.48686004
0.08711338,0.08670579,0.11809901,0.11245293,0.057750765,0.11217316,0.49977368
0.056673054,0.08097558,0.080714494,0.0632621,0.052598983,0.11258052,0.4913039
0.088684194,0.13288979,0.10119906,0.0767737,0.114608906,0.08562688,0.4926882
0.08406356,0.11609215,0.09254335,0.11700936,0.086866654,0.11147789,0.4817935
0.10229959,0.09975564,0.09658503,0.11681263,0.090193704,0.080421075,0.53523695
0.10617093,0.12635612,0.0747459,0.06836414,0.10909889,0.10895692,0.53386575
0.1369019,0.06912791,0.091140024,0.115278915,0.08905753,0.09885256,0.5175822
0.11842823,0.07280565,0.13565087,0.101325825,0.110350244,0.42622748,0.586628
0.08792154,0.055900253,0.111041136,0.11507979,0.10136489,0.45164156,0.61545813
0.08152976,0.085509755,0.04967482,0.08680762,0.097815454,0.510254,0.60894704
0.10937346,0.10276905,0.123869546,0.112438746,0.06808007,0.4768265,0.62131506
0.07316602,0.10162786,0.121363275,0.11644726,0.083176054,0.52481675,0.60715127
0.13623406,0.102591716,0.09241917,0.09257818,0.111655585,0.4558387,0.64323956
0.12322646,0.07141652,0.11398293,0.09999271,0.085997224,0.50551224,0.6499208
0.0902855,0.11573211,0.082481034,0.086698584,0.12377641,0.44545963,0.6731625
0.065436274,0.10449152,0.09029385,0.13273174,0.146627,0.5016575,0.65414304
0.12680493,0.11438858,0.12969841,0.097322054,0.112855196,0.51966745,0.65617687
0.0974638,0.061899357,0.09432,0.08131411,0.12961124,0.5290451,0.63720155
0.12453662,0.10601011,0.062385656,0.08546377,0.11419483,0.5014077,0.69564116
0.067916006,0.07604926,0.098538496,0.102339976,0.08911932,0.5431405,0.6965582
0.08783992,0.09188095,0.09825565,0.11489404,0.10383045,0.5916892,0.6841491
0.099953726,0.11053615,0.12381622,0.073132314,0.49549696,0.6061151,0.6616534
0.10080848,0.10169073,0.10015559,0.13682206,0.45091307,0.6075934,0.6684006
0.090886146,0.082856655,0.09145581,0.10606097,0.44663787,0.60022193,0.68599004
0.11236163,0.100030094,0.120805755,0.10923375,0.45066556,0.66085887,0.720264
0.078567974,0.06928968,0.10233619,0.097976595,0.47480687,0.63676226,0.71057856
0.09708713,0.12294006,0.084934264,0.1003199,0.46477717,0.6637063,0.6785006
0.10235354,0.09584195,0.12304758,0.096981965,0.52389556,0.6688307,0.7198302
0.110247895,0.12233012,0.10383236,0.12031504,0.5001885,0.6343708,0.6981224
0.114201486,0.08943856,0.10002771,0.09981062,0.52061814,0.68366,0.70740044
0.077484995,0.08950632,0.10353601,0.11531884,0.5004069,0.6748263,0.73999774
0.06930278,0.08470133,0.0785717,0.09130812,0.48864558,0.6491716,0.7383694
0.12554441,0.11751435,0.0894378,0.10390368,0.49020216,0.68400747,0.74719477
0.10664154,0.08580663,0.10006691,0.08391685,0.5030404,0.65941954,0.72691983
0.085028484,0.112890124,0.09610494,0.124328785,0.53282905,0.71666247,0.7468683
0.1310228,0.09235071,0.12544833,0.43336147,0.6175467,0.70526785,0.71908534
0.10231337,0.06048061,0.104348,0.44954443,0.6258793,0.69183093,0.72703135
0.12358452,0.08859229,0.117096655,0.4556485,0.5905478,0.7226133,0.7268053
0.10134622,0.07641368,0.100183755,0.46066675,0.6266564,0.669541,0.7347305
0.14120667,0.10066976,0.12111747,0.48788646,0.6123222,0.68985635,0.70921844
0.13509294,0.07617798,0.10793669,0.4726852,0.6468852,0.7032549,0.73091614
0.09499986,0.118498646,0.100247554,0.51236814,0.6542816,0.75627357,0.7646901
0.11940215,0.09814922,0.09970507,0.47347927,0.6269307,0.6932023,0.71381974
0.11286842,0.09640898,0.080872126,0.4984818,0.67523706,0.68331236,0.7088699
0.12732227,0.113067485,0.11008796,0.48470882,0.7079816,0.69121075,0.7100412
0.0806385,0.11921511,0.09913287,0.5136576,0.68305534,0.7406554,0.7875837
0.1136439,0.0995209,0.08988304,0.5098147,0.66807866,0.7128717,0.7427482
0.121075846,0.08448335,0.12203659,0.51180845,0.6698028,0.7235892,0.7269239
0.06471563,0.06441103,0.0748861,0.5433343,0.67657095,0.7438334,0.73234737
0.07620689,0.08615106,0.09142214,0.5110108,0.6699748,0.72701067,0.73395985
0.05906764,0.08750804,0.12040666,0.61606985,0.6944921,0.7356401,0.7147989
0.09444295,0.10197224,0.45617822,0.5954298,0.6707455,0.7434351,0.71524
0.114159316,0.09290553,0.45467475,0.6193836,0.65960616,0.7250792,0.72018313
0.12983158,0.11354309,0.4663198,0.5993889,0.7054911,0.7311164,0.7063712
0.10124087,0.08749931,0.47045785,0.6160685,0.7050351,0.73981965,0.7102349
0.13230442,0.09859128,0.44200674,0.63354045,0.69650966,0.7526695,0.7223215
0.07210179,0.12338357,0.47072428,0.67718524,0.68541205,0.7195714,0.6921825
0.06560646,0.10651061,0.5153071,0.64846003,0.7198031,0.6749076,0.7609713
0.09853203,0.098442234,0.47495368,0.6849302,0.69695526,0.7485986,0.7202643
0.10729175,0.087571554,0.48683244,0.6614758,0.71653795,0.75303656,0.6760117
0.09892259,0.08691186,0.48731786,0.6543982,0.7569811,0.737746,0.6478522
0.058192264,0.082528844,0.50125396,0.6978342,0.7368762,0.73816216,0.6794432
0.09772192,0.08868418,0.49606666,0.6805298,0.69844574,0.7203494,0.70245105
0.07337672,0.11457943,0.5220884,0.6635112,0.7021121,0.74026716,0.6939329
0.11281995,0.09498873,0.52081263,0.6901858,0.73223025,0.7457438,0.677057
0.10671743,0.072390005,0.53673726,0.6791624,0.7030758,0.728017,0.6621881
0.080545425,0.13470641,0.5045334,0.64930344,0.69173926,0.7747087,0.6508716
0.089021824,0.10569847,0.59964156,0.7117023,0.74341553,0.6913965,0.6554359
0.07806962,0.071115024,0.608084,0.71860784,0.73998356,0.7235096,0.6375714
0.09795363,0.4444232,0.62772304,0.73702097,0.74317575,0.6941348,0.6439729
0.11826196,0.46093273,0.60861725,0.71208346,0.7398254,0.7323834,0.67250305
0.0793951,0.49817154,0.64852464,0.70186913,0.73346126,0.6801157,0.62419707
0.109139636,0.4471906,0.6595266,0.72657,0.72152823,0.6818206,0.64538383
0.088401236,0.49405405,0.62146276,0.729716,0.74490106,0.6923853,0.64178777
0.08309521,0.50760925,0.6367186,0.74815655,0.7647841,0.706713,0.5980914
0.09675693,0.47203735,0.64104563,0.71699077,0.7235719,0.68563277,0.5957937
0.078136146,0.48395443,0.7093312,0.7168845,0.71239376,0.68177897,0.6268337
0.08771006,0.473575,0.65293443,0.7080177,0.7091206,0.6856167,0.5795517
0.074766144,0.49492937,0.6997822,0.73502934,0.71330535,0.67993885,0.24088795
0.13795745,0.502864,0.64544135,0.6950849,0.73331183,0.7098857,0.28191626
0.09930606,0.5212847,0.6553712,0.74315995,0.6848906,0.68901354,0.2597401
0.08454272,0.53428876,0.665667,0.74080044,0.73469365,0.6637694,0.24082325
0.10275187,0.501813,0.6665637,0.74196774,0.7368199,0.7069755,0.25485706
0.096159354,0.48161355,0.6820403,0.7340701,0.68581647,0.66945326,0.23579681
0.09391877,0.52461463,0.67698485,0.76282084,0.69983643,0.6346378,0.25610206
0.11055234,0.6117704,0.6783761,0.7502729,0.71846193,0.6533583,0.19358404
0.1133486,0.6167669,0.7213742,0.72117925,0.71125424,0.6529652,0.23044613
0.43755314,0.61099595,0.7259609,0.7218407,0.7215796,0.6223473,0.19017737
0.4419185,0.62564564,0.72358876,0.71614987,0.70523614,0.6087144,0.23375504
0.45312327,0.6589497,0.7180373,0.7447037,0.73003596,0.6249805,0.22437967
0.4176919,0.64163333,0.7122025,0.7134255,0.6948097,0.60935783,0.2548451
0.4384479,0.63175535,0.70303243,0.75466204,0.6778767,0.63928205,0.24034685
0.50102484,0.63430786,0.6963697,0.7588353,0.67238575,0.6174885,0.21402135
0.5114354,0.6458675,0.7249863,0.7139931,0.7042952,0.5826466,0.21480511
0.47831604,0.6868146,0.6963804,0.726876,0.68592495,0.24927673,0.2288838
0.49949944,0.6550903,0.7019336,0.72974944,0.6935701,0.26517844,0.20811374
0.49877468,0.66289693,0.7466613,0.7457434,0.6885395,0.21098904,0.21716781
0.55861735,0.6580421,0.7632385,0.7587143,0.6310807,0.21739045,0.24235535
0.523829,0.6939213,0.7345448,0.6910988,0.6436975,0.23655546,0.19760133
0.5031836,0.7152485,0.750092,0.7165442,0.6409305,0.23637597,0.20335007
0.49084124,0.6890298,0.72416013,0.7155051,0.6396895,0.2334577,0.2042322
0.48193794,0.6854936,0.70326775,0.69054866,0.642097,0.2270768,0.27157795
0.5221547,0.6882481,0.74303836,0.7064162,0.6648077,0.22551516,0.218576
0.50687975,0.64335346,0.74278384,0.7220504,0.66294384,0.2384193,0.22700685
0.5734614,0.7093217,0.7332637,0.7051192,0.62709665,0.25206488,0.21764274
0.5946404,0.70033216,0.72724414,0.67681986,0.6217417,0.21837343,0.21686392
0.5914886,0.7092961,0.7514262,0.7620362,0.60630596,0.2753219,0.20746516
0.65229124,0.68942994,0.71238655,0.7065439,0.6156821,0.2642846,0.20309927
0.6414899,0.6987487,0.71637374,0.69994456,0.6112709,0.25012866,0.16454248
0.628885,0.70084405,0.7112643,0.67206794,0.6165126,0.23442233,0.19844222
0.66370803,0.731971,0.7325321,0.6953829,0.60935694,0.2605184,0.18681043
0.6405975,0.7062841,0.70831007,0.6828544,0.19308744,0.21289967,0.19754446
0.62664056,0.7576794,0.7154477,0.6441668,0.23516157,0.2003511,0.18284255
0.67901874,0.7266559,0.7139117,0.6561607,0.26493168,0.20474339,0.19711466
0.6638974,0.6943825,0.7215387,0.688924,0.22747946,0.19342254,0.1982097
0.63680905,0.7190273,0.69555765,0.7071979,0.25797376,0.2140955,0.118696414
0.6580528,0.71011084,0.72543395,0.6707867,0.22796246,0.21579424,0.16576003
0.64852256,0.68064654,0.7468516,0.680466,0.23644826,0.21191324,0.13475898
0.6424231,0.7577568,0.7226624,0.65008664,0.20902629,0.2057079,0.09998886
0.6925147,0.7409064,0.7486579,0.6461063,0.20854981,0.20664154,0.08907983
0.7159585,0.7384266,0.74222267,0.66413176,0.24377201,0.23668934,0.12209323
0.6534439,0.7318319,0.7286416,0.6698838,0.24558303,0.21231145,0.099002875
0.69618493,0.7014871,0.7119585,0.65680885,0.22711715,0.21627188,0.08502735
0.67528737,0.7199008,0.7081269,0.6034627,0.20063783,0.19951321,0.113388
0.681796,0.74669635,0.72,0.6172998,0.22462237,0.16122642,0.0881298
0.6827918,0.7089657,0.69377345,0.6178863,0.24740759,0.1550671,0.08440983
0.6803231,0.67932594,0.6606758,0.6006886,0.25559586,0.23077396,0.10211689
0.701398,0.7252321,0.70472306,0.60703695,0.21283954,0.17622146,0.12637706
0.686494,0.7265938,0.66865665,0.6089422,0.18437144,0.17223088,0.11106058
0.7110676,0.73163676,0.66826946,0.25723028,0.23273157,0.18715577,0.10519874
0.70705867,0.74283427,0.6835912,0.26998875,0.20872141,0.19089645,0.14874834
0.7055484,0.74019647,0.6775998,0.22873737,0.23137921,0.19104159,0.07894908
0.6942983,0.7316424,0.6470186,0.20705825,0.2163794,0.21057947,0.0783695
0.70289433,0.7492427,0.67417115,0.24047445,0.191291,0.20266414,0.0962405
0.7313751,0.6936605,0.68562984,0.2699152,0.20828958,0.15396138,0.12349356
0.7279801,0.7326823,0.6390315,0.2215873,0.23141965,0.11243033,0.07422192
0.6999616,0.73351544,0.6821863,0.24371053,0.20036194,0.08523509,0.12800837
0.7229065,0.69443107,0.62051964,0.24269451,0.18070553,0.09002669,0.063994415
0.7372105,0.6872466,0.68890536,0.23137395,0.16765042,0.07075572,0.09021114
0.68991303,0.7003114,0.63302034,0.22640897,0.18196729,0.058631364,0.09596214
0.7351419,0.6997706,0.63869673,0.20648743,0.18716134,0.09171759,0.07469618
0.7118507,0.7256865,0.5923361,0.17796881,0.20968433,0.07308388,0.07977883
0.7371984,0.69579005,0.6231816,0.19997194,0.16875504,0.11061317,0.107989505
0.711059,0.68826324,0.623098,0.212971,0.22010273,0.0862874,0.12074008
0.69061863,0.6903142,0.6107673,0.24125524,0.16010894,0.097931534,0.049467523
0.6944118,0.721924,0.59505075,0.21573591,0.23127525,0.11895971,0.09521392
0.7280249,0.69666547,0.5810642,0.20587201,0.21691933,0.061751444,0.08919117
0.7322123,0.68952215,0.61615205,0.19684964,0.18296626,0.07681186,0.09345213
0.7087403,0.68745977,0.58756834,0.22618547,0.14489424,0.09476744,0.08481444
0.73926127,0.71190476,0.2648419,0.23856013,0.17441666,0.09724452,0.06518429
0.692776,0.6673357,0.22258285,0.23096935,0.16543789,0.11290695,0.121682934
0.724056,0.7047375,0.22346294,0.22009577,0.14531174,0.108021736,0.113865264
0.7003828,0.6785991,0.24747801,0.17669761,0.17421436,0.092457734,0.08843928
0.71064645,0.66699725,0.19767506,0.19737887,0.14949259,0.096426256,0.0805919
0.72356576,0.7158957,0.20479515,0.24152681,0.075897865,0.0968175,0.07800717
0.704199,0.6402936,0.2499056,0.22315447,0.08595894,0.060638268,0.03831945
0.71236074,0.649719,0.20337062,0.16806698,0.078369595,0.08674026,0.09694417
0.7386777,0.62738925,0.18924382,0.19577417,0.13126488,0.09467121,0.10530822
0.7053696,0.6661922,0.26177338,0.20218477,0.078820154,0.09870546,0.09229249
0.7318329,0.6758929,0.19526719,0.17768481,0.0981835,0.07087861,0.087639146
0.690593,0.670336,0.22552964,0.144718,0.092106484,0.06382007,0.09186371
0.721708,0.6561085,0.221896,0.19082212,0.09607992,0.08433427,0.071960405
0.7377253,0.62223387,0.1629324,0.17100403,0.09743431,0.12819988,0.07886144
0.6571008,0.6133044,0.21239324,0.16896646,0.106306136,0.07229396,0.08535225
0.68809366,0.5814761,0.22526675,0.17540489,0.093832925,0.11198257,0.10243754
0.7129296,0.6497761,0.2219082,0.17765187,0.09282576,0.12002264,0.11590502
0.6945432,0.6124675,0.23138092,0.17794287,0.089319974,0.08905976,0.08356748
0.70310277,0.58714986,0.20401452,0.15821671,0.08520341,0.0743748,0.06707606
0.68053645,0.61732423,0.22443397,0.16923775,0.069555886,0.09804824,0.088504784
0.6911454,0.5649565,0.19478291,0.13621293,0.08639331,0.09151048,0.1278405
0.6829594,0.23873483,0.1787122,0.17527628,0.09225361,0.07024619,0.068272136
0.70595044,0.22624567,0.17928591,0.10959935,0.095287904,0.074068554,0.104961425
0.68406844,0.24153127,0.17428446,0.15858029,0.09066541,0.09613131,0.11377893
0.68198144,0.22650951,0.22197224,0.18037556,0.08221448,0.10554239,0.07967328
0.6631061,0.19774967,0.16971098,0.065499395,0.085544616,0.08023041,0.07267172
0.6575715,0.22723119,0.20367369,0.10082621,0.07542468,0.08511494,0.09799674
0.65451914,0.24561279,0.19103383,0.10942243,0.09257226,0.09968055,0.093372114
0.66677356,0.22293164,0.19242814,0.019958721,0.081694156,0.082666986,0.100012206
0.6460475,0.2378636,0.2198519,0.08289718,0.08953565,0.0799379,0.12739863
0.6557148,0.20026115,0.18188015,0.028215464,0.10574699,0.07062411,0.08907186
0.68674994,0.2194223,0.20092045,0.08317204,0.07134903,0.070082515,0.061691713
0.65785843,0.20619869,0.18745065,0.085196845,0.09727418,0.13871792,0.086673066
0.628982,0.23233578,0.18164168,0.035492238,0.08580732,0.081219085,0.089974254
0.65446687,0.21669939,0.22863635,0.12344152,0.12536862,0.11224592,0.11028813
0.61709595,0.22851086,0.15173775,0.0904655,0.080419175,0.11842505,0.08080989
0.5791856,0.23507014,0.20424806,0.067563936,0.098447695,0.08087276,0.07636305
0.5943541,0.22572187,0.1894681,0.11365002,0.084649496,0.09171102,0.056918547
0.57154584,0.21589273,0.16459826,0.048226986,0.05637316,0.08618882,0.095087506
0.5962567,0.18897462,0.20459868,0.059351455,0.07352109,0.05169123,0.15089902
0.5978613,0.2073596,0.13284895,0.037740197,0.10133873,0.05268985,0.07927749
0.62510955,0.19519825,0.15715049,0.119543456,0.074868664,0.08449952,0.09256165
0.5920905,0.19739214,0.14116722,0.089961536,0.03890948,0.07481634,0.07235795
0.5750256,0.19516504,0.1713065,0.09629352,0.08247741,0.12093709,0.05747978
0.24262926,0.18140884,0.13850899,0.08891519,0.06104844,0.078163706,0.091579884
0.18091461,0.16018187,0.16711502,0.09415903,0.08532003,0.121702254,0.083247446
0.22891222,0.18425709,0.07874228,0.084032565,0.11349395,0.07294318,0.034759928
0.23864642,0.19974928,0.072670095,0.0876756,0.09764632,0.12050118,0.11445775
0.19265334,0.16715065,0.08981511,0.084194236,0.11277528,0.092170656,0.09036145
0.24406303,0.19263151,0.07645356,0.06965416,0.07059575,0.09309183,0.083303906
0.22688791,0.22849849,0.05983596,0.08067616,0.07874533,0.07137337,0.07316912
0.21070959,0.20910145,0.13741761,0.08686205,0.060501434,0.0929285,0.08949604
0.23053588,0.21963073,0.07142716,0.08338148,0.06748963,0.11502477,0.09019842
0.26212674,0.19267482,0.036597513,0.05139425,0.062411997,0.07805315,0.08897612
0.21915081,0.20626801,0.06388576,0.053828,0.054593273,0.0739398,0.102087595
0.2192467,0.16647771,0.055159092,0.10216145,0.107821755,0.07556938,0.10641005
0.20383228,0.16608346,0.096803285,0.07414049,0.038441166,0.1126826,0.12039223
0.19472851,0.1221752,0.08648803,0.09174949,0.10745776,0.097162,0.06331813
0.2270069,0.19864361,0.0878027,0.05798605,0.10474963,0.108782046,0.068360016
0.19192247,0.20366527,0.072200336,0.050137863,0.08959664,0.08587324,0.086824425
0.20908885,0.15970917,0.07378498,0.06250005,0.057081837,0.08015837,0.063790165
0.19668743,0.16358393,0.07172343,0.07469075,0.047498554,0.08762094,0.06678175
0.21437322,0.15145275,0.07728714,0.065608196,0.06794293,0.10031418,0.08841559
0.20999013,0.17202733,0.0953855,0.1045575,0.09118124,0.07373647,0.09669568
0.22256148,0.18469492,0.08516704,0.082036,0.07850681,0.10581908,0.1039641
0.19007498,0.12514104,0.088213384,0.1151899,0.05734114,0.08552774,0.07435884
0.19331354,0.16596416,0.087966785,0.08606377,0.100939706,0.029850045,0.08723867
0.17754294,0.15000007,0.095427826,0.029487962,0.111426644,0.09540885,0.082594134
0.18661125,0.15553918,0.08326425,0.098622076,0.072969265,0.052055143,0.077854395
0.20139408,0.08644229,0.08443937,0.047071375,0.07944915,0.09444586,0.060942225
0.2073112,0.07325842,0.1007986,0.08163315,0.0468455,0.09505283,0.058158252
0.17202416,0.074709706,0.063480526,0.061287764,0.06849371,0.0833793,0.09011494
0.20612869,0.07226182,0.05942447,0.11939354,0.08674812,0.08741294,0.059882935
0.21409182,0.09570244,0.05257768,0.10508807,0.083393246,0.09827353,0.040757738
0.19346398,0.08442702,0.07971011,0.06121541,0.06589846,0.066139266,0.075416595
0.22092152,0.080218114,0.0387318,0.073259294,0.070321575,0.091675036,0.10491125
0.16607457,0.050140955,0.084803075,0.08045195,0.066615775,0.098820455,0.019662982
0.15479685,0.067740865,0.0731286,0.09258074,0.06974317,0.11051411,0.06954586
0.1422303,0.09303725,0.09775666,0.0756469,0.08352856,0.05294826,0.08856816
0.20581593,0.07556813,0.061375853,0.0543163,0.035463456,0.08298452,0.038344268
0.18704861,0.0877541,0.0704971,0.060212296,0.07307648,0.055333685,0.07029681
0.17089221,0.10964192,0.09675574,0.07422204,0.08131119,0.054233238,0.051522534
0.17562258,0.09483095,0.10172155,0.098747976,0.06264914,0.08123939,0.05391527
0.14550987,0.075668104,0.060201887,0.08236169,0.064218275,0.07535405,0.06575657
0.21490864,0.0633302,0.07718561,0.058081686,0.0645421,0.096450016,0.05108703
0.1665299,0.022223,0.07918237,0.086261444,0.06371299,0.066370465,0.049167976
0.16406359,0.069669254,0.08051002,0.06529726,0.07315463,0.07035593,0.07185232
0.17429999,0.06625863,0.06752737,0.09058704,0.075358935,0.07700896,0.11732166
0.16729298,0.08032709,0.09814744,0.12305998,0.030509485,0.055283193,0.08767464
0.1600182,0.069181524,0.03446556,0.0650831,0.08531724,0.057798233,0.09247029
0.1375788,0.06559076,0.06357586,0.08803056,0.06619848,0.09432044,0.08794371
0.16064589,0.03614829,0.080694884,0.056828402,0.110395536,0.06075717,0.057786
0.18666613,0.0526737,0.080617554,0.069227785,0.04764009,0.09512259,0.0776897
0.17372452,0.08074185,0.09826401,0.071800075,0.053862542,0.083355084,0.093162715
0.10280732,0.10526174,0.094908096,0.06706992,0.06688541,0.03999297,0.08751034
0.060453027,0.06872684,0.06496651,0.11993761,0.07894185,0.08128492,0.07456836
0.050617993,0.07696631,0.09640751,0.06427823,0.031394742,0.08085968,0.080811016
0.0676261,0.0891914,0.055861,0.08187886,0.053559832,0.07860041,0.11939931
0.07098708,0.053654704,0.08849033,0.031270843,0.081698984,0.06703505,0.08666144
0.09148616,0.076938614,0.10581279,0.078242265,0.050639857,0.050800987,0.06329915
0.035481807,0.0545213,0.093629986,0.09217219,0.096731625,0.096255355,0.06785036
0.099649884,0.086355366,0.07117429,0.058506932,0.05998121,0.067027286,0.047975853
0.06562552,0.07181374,0.062150102,0.018581234,0.05079821,0.051117554,0.1157264
0.059973873,0.07448053,0.03793967,0.06773846,0.08071638,0.07766087,0.10058889
0.047994252,0.05258437,0.07444713,0.06858002,0.10038869,0.053380743,0.0699006
0.034863085,0.08210086,0.045655873,0.08244172,0.07628814,0.048978496,0.11157662
0.08414654,0.109377384,0.05182043,0.107901186,0.092891715,0.06017367,0.080331124
0.06887143,0.047246836,0.043590154,0.059804,0.100937776,0.054097116,0.058788143
0.041326843,0.06033088,0.057918213,0.0500003,0.048688885,0.048881214,0.08525511
0.040944517,0.07147824,0.066286705,0.043507736,0.08561392,0.08297433,0.07481896
0.059849482,0.0822933,0.072037466,0.07052675,0.036095764,0.06428862,0.08332231
0.09966374,0.055092387,0.05427318,0.0758704,0.074781366,0.09132891,0.038901474
0.06080868,0.009339902,0.08738618,0.0550874,0.06457415,0.04891032,0.049794223
0.035653904,0.09290055,0.06155266,0.08129042,0.09057577,0.031165544,0.09548618
0.060517225,0.08064221,0.049677636,0.07473977,0.08887712,0.06840749,0.099294834
0.059692007,0.030287527,0.069672324,0.06601111,0.07654215,0.10226606,0.09344873
0.010922209,0.052708566,0.104131,0.046811648,0.0708285,0.07547968,0.10923288
0.06348659,0.095936134,0.071275696,0.0549352,0.07473986,0.12887996,0.07611985
0.05966542,0.09324004,0.057026997,0.015689004,0.06551953,0.070925295,0.07442578
0.07791895,0.08276762,0.033445593,0.068710566,0.0627709,0.068705864,0.045730684
0.10068374,0.060182374,0.059316374,0.06423145,0.092556186,0.020597368,0.052093994
0.08594482,0.06507327,0.06811208,0.0671831,0.09467132,0.07197247,0.0236483
0.057743736,0.060502995,0.05536989,0.07320789,0.060288325,0.06649487,0.05669179
0.04069809,0.0853934,0.029520914,0.07054504,0.06758133,0.054680184,0.021658085
0.114002004,0.04501796,0.045523502,0.060327146,0.06416792,0.05979923,0.08415414
0.06342449,0.04612413,0.09133089,0.06321348,0.030006155,0.060878113,0.0700081
0.06222314,0.08215004,0.09062457,0.033858225,0.05521584,0.05834597,0.021421168
0.061165597,0.06076087,0.043915316,0.04997369,0.09364218,0.1034424,0.057850827
0.06531247,0.08892012,0.07480591,0.062360194,0.046355255,0.05393353,0.10070389
0.058165364,0.047622327,0.037481114,0.0463355,0.10334344,0.06443885,0.05853925
0.049280263,0.059657935,0.08883983,0.07795652,0.08419603,0.052675482,0.040786084
0.04951639,0.04200531,0.06535829,0.04728093,0.06848353,0.076122195,0.024743525
0.059497714,0.060300034,0.07914561,0.06447889,0.07136965,0.063688055,0.025039846
0.048982635,0.030280193,0.025549265,0.062182445,0.041507,0.05425292,0.07056273
0.045291718,0.049795967,0.07310138,0.074474186,0.05424406,0.021029275,0.050871182
0.061373893,0.030520212,0.059091806,0.07726111,0.08807327,0.06411146,0.052225407
0.053841557,0.07281957,0.07597968,0.07282175,0.046650514,0.052749574,0.05034617
0.08871593,0.072967865,0.07693343,0.016515952,0.07985871,0.057421263,0.055831276
0.005310821,0.023724962,0.05964591,0.08221318,0.030789413,0.03468106,0.033786956
0.07985367,0.08470125,0.046006937,0.08856969,0.03406036,0.086689174,0.06434563
0.08263772,0.10766432,0.07330994,0.04807353,0.09574371,0.07485088,0.02926189
0.015939878,0.05832781,0.05620459,0.06214062,0.05717094,0.0860218,0.042290833
0.05024478,0.04427625,0.039642833,0.039281897,0.046328533,0.080038115,0.077315085
0.049359754,0.113275185,0.038385525,0.017821,0.08404338,0.06863492,0.06431267
0.028327568,0.03009843,0.026934512,0.041703496,0.08139423,0.03363215,0.070191436
0.040609896,0.056568358,0.045960404,0.04536345,0.07458132,0.09303397,0.099174
0.03364234,0.059446305,0.0779077,0.04875684,0.0444559,0.037301157,0.05466078
0.0905861,0.08244365,0.05909729,0.03636241,0.04980234,0.05017254,0.055969898
0.07394031,0.06242152,0.044631384,0.040558234,0.061459314,0.069364786,0.049940318
0.0803431,0.04493932,0.071009114,0.054691873,0.06879999,0.07004281,0.046043716
0.06902992,0.03557279,0.037946947,0.03919194,0.044426806,0.066041216,0.03438466
0.031699147,0.047443744,0.056187186,0.06515067,0.057694923,0.046274412,0.05596148
0.043472707,0.033824567,0.050370507,0.067596324,0.05931094,0.04182448,0.061064087
0.06343277,0.054601785,0.06922789,0.10125303,0.07938067,0.10433593,0.061860684
0.028884122,0.042042755,0.021782111,0.07584028,0.06841599,0.0525404,0.054613955
0.06726729,0.023126567,0.036003366,0.057869382,0.02287129,0.049771894,0.07153074
0.047880705,0.077790126,0.0199223,0.040281925,0.048414607,0.03841608,0.053275947
0.044869937,0.042412903,0.047174416,0.0582413,0.033790685,0.05725976,0.044180315
0.066263944,0.026682012,0.0762733,0.058576666,0.0634065,0.056005206,0.033504985
0.06060767,0.048357222,0.04161346,0.04145614,0.07018547,0.05139788,0.0207429
0.044180002,0.052766755,0.041185647,0.067073956,0.053430445,0.05903386,0.08060763
0.07426211,0.016146181,0.06851,0.023113554,0.045712974,0.08634626,0.03709442
0.029129712,0.057383932,0.07212197,0.04586298,0.052134376,0.038849924,0.032237634
0.06274443,0.02948257,0.0486543,0.06154289,0.054604106,0.051287394,0.042074956
0.06196177,0.08432032,0.06379404,0.04434806,0.03729775,0.037142776,0.04453197
0.04358213,0.060252268,0.028233968,0.04563797,0.025398837,0.055667024,0.082543306
0.055968326,0.041447666,0.07700515,0.046689946,0.008442882,0.038076274,0.042882722
0.024095295,0.03421421,0.092091694,0.03240554,0.07446121,0.038608707,0.101785235
0.06726931,0.046689417,0.059213087,0.07226679,0.058716096,0.019598302,0.050062712
0.044761237,0.060715094,0.0067726476,0.028098527,0.0557095,0.050415177,0.08959985
0.03767464,0.04761922,0.036964495,0.054492287,0.07343308,0.056724492,0.06600769
0.068778425,0.04345506,0.060054746,0.056071196,0.022688877,0.085007764,0.055018988
0.033379823,0.0486341,0.039037034,0.028494257,0.012754078,0.056856744,0.07902366
0.018965252,0.0350573,0.072578445,0.04859656,0.054819115,0.038140796,0.06957907
0.015669007,0.03993747,0.058564734,0.028608946,0.052667018,0.019608008,0.059495173
0.058588237,0.004752188,0.032338526,0.07428889,0.011841901,0.022042297,0.092819914
0.020525236,0.065608345,0.04677912,0.023358164,0.053324245,0.020221256,0.036165968
0.080894835,0.051774908,0.02792229,0.032721013,0.037794493,0.08335979,0.025900679
0.003824844,0.029994315,0.041811734,0.020978931,0.02932167,0.051219642,0.38421232
0.07905639,0.083101965,0.0340354,0.01797329,0.03845879,0.03346794,0.43907294
0.049010806,0.046530787,0.06828569,0.07661476,-0.0040401155,0.025593264,0.439205
0.042518746,0.023730138,0.086773254,0.055308502,0.032625526,0.027330853,0.40571636
0.03321655,0.06124968,0.015491165,0.046920802,0.030029042,0.031928945,0.3750276
0.05175895,0.051737193,0.0053119017,0.030644689,0.054918278,0.07010133,0.42376778
0.042684205,0.0513285,0.038533453,0.061589137,0.040272295,0.04283803,0.4132463
0.065162994,0.034581844,0.012728641,0.026612505,0.055874333,0.014147626,0.4291205
0.04504095,0.05176631,0.04368063,0.05862918,-0.00823439,0.08896558,0.42325735
0.045421265,0.037180066,0.057393953,0.024965005,0.025633266,0.019612009,0.41735774
0.03480122,0.05319229,0.0719563,0.029183308,0.053193405,0.030256756,0.49227023
0.040592182,0.0036322067,0.04575899,0.056896742,0.0355538,0.067933984,0.4458432
0.04754417,0.032710668,0.03752503,0.058664683,0.058297347,0.04969113,0.49253124
0.006841219,0.07548769,0.0014768884,0.052994046,0.0049525285,0.031646125,0.5398865
0.013736746,0.025359105,0.04122416,0.019706972,0.05532267,0.016073115,0.5285865
0.055221025,0.028278977,0.04178149,0.031421207,0.02757296,0.021021942,0.5680906
0.04342777,0.031051232,0.052789595,0.043148432,0.025286518,0.021880537,0.5566102
0.035984937,0.015368482,0.025494844,0.022678986,0.059485547,0.03980524,0.5666245
0.039686866,-0.004847428,0.030617137,0.06673744,0.06255621,0.043139424,0.5798105
0.045922846,0.034359485,0.009411166,-0.009067728,0.059665207,0.035998117,0.5666223
0.027828487,0.04134087,-0.0072021754,0.02304889,0.079396516,0.037839405,0.55620414
0.022709506,0.0372255,0.01610566,0.02808427,0.06361167,0.017261136,0.59316576
0.04184388,0.035029404,0.0065204604,-0.018951897,0.022018244,0.0437897,0.6188356
0.018010357,0.03843863,0.04431206,0.009653231,0.040410575,0.06318819,0.58669144
0.045393173,0.057684947,0.026865436,0.049733907,0.030024158,0.033972282,0.6127663
0.002826217,0.033068966,0.026113147,0.03748356,0.077459686,0.3892763,0.6445571
0.05711025,0.025045486,0.016838877,0.067989856,0.058624536,0.4005696,0.6172057
0.045627818,0.030553358,-0.028475441,0.06708039,0.032398265,0.4271403,0.6250694
0.040944677,0.047411017,0.0659903,0.04448501,0.053382277,0.39262545,0.628589
0.05512561,0.06371233,0.015466378,0.041736554,0.010827819,0.4451556,0.6177643
0.06842848,0.022556115,0.026870588,0.036437612,0.040124226,0.4300549,0.6152582
0.055053093,0.036744367,0.005667849,-0.018335948,0.016007243,0.42756698,0.61884046
-0.0024055846,0.04117905,0.053850506,0.00652071,0.0006400561,0.4564903,0.6492746
0.00846608,0.014206058,0.0369262,0.03607113,0.049748342,0.41368383,0.66013724
0.021206481,0.034111198,0.017175548,0.04602337,0.051874675,0.4527311,0.6639326
0.03386943,0.0040341313,0.025503017,0.039141003,0.04249186,0.4557253,0.64289254
0.04334507,-0.0023891167,0.066555485,0.01514259,0.029332548,0.43310106,0.67474216
0.018120825,0.03997063,0.031176312,0.051383827,0.0073085283,0.46557438,0.66121507
0.036014386,0.024601554,0.02864438,0.06192793,0.009052112,0.54218924,0.65845275
0.01681428,0.035967547,0.013094309,0.05068173,0.0125363385,0.53956264,0.5919984
0.019334018,0.031206474,-0.0063272496,0.05135636,0.026890907,0.5668378,0.64396167
0.0030731382,0.0116783595,0.028005587,0.020021845,0.052729934,0.5444179,0.6311883
0.0123832375,0.029942816,0.037357606,0.052366585,0.05205599,0.5673563,0.6752276
0.0034553148,0.005826981,0.052480698,0.03340418,-0.002482345,0.5652364,0.6654377
0.010612212,0.057949126,-0.014840254,0.04036079,0.01626501,0.561317,0.6427227
0.050842755,0.0026505128,0.0072679934,0.037078556,0.0153667,0.5892288,0.6706493
0.010421761,0.025494033,0.017794916,0.026979996,-0.021221925,0.5803936,0.6362658
0.08169678,0.008203708,0.028979523,0.01184909,0.04037156,0.5602807,0.64380777
0.038554486,0.04009655,0.025787454,0.027045393,0.02376493,0.5587253,0.6501996
0.03202343,0.02169808,0.025892934,0.04806194,0.026063856,0.6153451,0.6747014
0.010797729,0.017591551,0.036126807,0.019135369,0.054882307,0.57977927,0.69115585
0.041608863,0.044666696,0.009536802,0.04546961,0.3843082,0.6142144,0.650489
0.015727295,0.027828664,0.04592288,0.041981466,0.3797063,0.6139679,0.68747455
0.029317247,0.03720994,0.0355461,0.020898303,0.40542918,0.6095454,0.660564
0.07771536,0.00688715,0.020117024,0.054289673,0.42071775,0.65990025,0.66270393
0.02422871,-0.0019464293,0.05816807,0.019038977,0.41090646,0.6280135,0.65484554
0.048771244,0.027929937,0.0569141,0.055976715,0.42408004,0.6429867,0.6500915
0.011357753,0.019044355,0.04407919,0.034103822,0.41258463,0.636824,0.66051626
0.024356652,0.037585117,-0.035314713,0.024739103,0.41893739,0.6295491,0.6640062
0.06010722,0.023093037,0.056270108,0.006935179,0.42779073,0.6366475,0.62875485
0.011786299,0.028427146,0.040220812,0.022560436,0.41529918,0.66884595,0.63968706
0.0602087,-0.008507923,0.0640879,0.019884538,0.4237056,0.6638782,0.6736641
0.037748512,0.061362214,0.048342768,-0.001572453,0.467202,0.68339115,0.6404085
0.011977551,0.019942047,0.05479374,0.018874578,0.48425198,0.65081316,0.63896644
0.035508122,0.036811706,0.040433064,0.006783904,0.48025462,0.6306631,0.6527286
0.041943815,0.0057708905,0.049466588,0.03421256,0.5026946,0.64100504,0.61529315
0.03456136,0.028285358,0.062007636,0.04825077,0.5070726,0.62746465,0.620359
-0.009647212,-0.0042996127,0.026088377,-0.002781031,0.5178063,0.6677567,0.6328821
0.0068463515,0.030430453,-0.010055516,0.05563525,0.5502977,0.6416833,0.63661855
0.016070232,0.013901122,0.014871386,0.018449584,0.49726167,0.59307086,0.55962276
0.019163145,0.021235624,0.028450726,0.0011513858,0.5473212,0.7040177,0.5870688
0.032696173,0.03424221,0.021780482,0.035437826,0.59273326,0.64368427,0.5765046
0.023467377,-0.004737449,-0.005017882,0.010984268,0.58956534,0.64370745,0.58845997
-0.0071631856,0.005853867,-0.013077651,0.017908968,0.5648893,0.68860316,0.5667444
0.026777726,0.028320255,0.004350515,0.011088204,0.57138646,0.63072616,0.59254
0.031015277,0.060767993,0.034958355,0.002468804,0.59620684,0.6771322,0.57656676
0.029628899,0.015671443,0.050039884,0.03291303,0.6082003,0.6419487,0.58456576
0.03967797,0.029885076,0.036393706,0.012336326,0.583288,0.6263079,0.57931036
0.034369804,0.015551932,0.038839906,-0.011041674,0.5935407,0.6857733,0.5671072
0.02650372,0.05616503,0.015703807,0.38261607,0.5910051,0.6687852,0.5398942
0.015545313,-0.017995805,-0.017893022,0.35304728,0.5796142,0.66717714,0.54159176
-0.01664232,0.018469319,0.0074724853,0.35955384,0.6055795,0.654374,0.5229989
0.024797294,-0.01630595,0.011029642,0.41182563,0.60760504,0.657037,0.49744835
0.019986488,-0.0342987,0.0058916835,0.36929393,0.59167475,0.6182369,0.5361645
0.020891888,0.021409553,0.016554208,0.3520302,0.63298696,0.6427288,0.5075748
-0.010447302,0.017877625,0.023916064,0.41584417,0.632722,0.61933005,0.12772346
-0.006906318,0.009018074,0.031775117,0.40222555,0.6397718,0.6073281,0.16724434
0.035404805,0.012217865,0.00877935,0.40875208,0.61310846,0.64032143,0.15070543
0.013177374,0.07593447,-0.024106711,0.4115025,0.5912204,0.6520553,0.112617105
0.027225023,0.008431506,0.003937455,0.4269968,0.64246935,0.61781055,0.12491748
0.013787716,0.023423836,0.014095556,0.411762,0.6218793,0.61761975,0.13690919
0.013442621,-0.0001397981,0.037303656,0.4606724,0.6191942,0.59527683,0.15361187
0.031239143,0.018378118,0.0011173093,0.4058386,0.61351913,0.6141628,0.16359353
0.0017783621,0.007334583,0.022350129,0.52353287,0.6346123,0.6249986,0.16129172
0.013647291,0.0035145055,0.017526634,0.5336373,0.6729292,0.6212076,0.15660897
0.0021048211,0.047728296,0.012228338,0.51161456,0.6323425,0.61166316,0.14215246
0.0022856928,0.03451932,0.029586283,0.51219714,0.6215287,0.5835777,0.17552544
0.004417309,0.013335684,-0.0026160723,0.5587291,0.6570407,0.57793593,0.15327291
0.014668411,-0.035858504,-0.0012779937,0.52413017,0.64793926,0.60164595,0.1418664
0.0002756012,0.002630389,0.0096125575,0.53722197,0.6023815,0.59658587,0.1468595
0.034590393,0.063535824,-0.0033276582,0.5723539,0.6581022,0.5713244,0.12560567
-0.008792311,0.004486602,0.01926008,0.5603979,0.6873155,0.5604714,0.1304559
0.0049868366,0.030788621,-0.0055395765,0.52869695,0.59242946,0.58638424,0.08793241
-0.0004460417,0.037187427,0.012874664,0.60435754,0.61922306,0.5497005,0.11976418
0.03691233,0.012352049,0.0059693153,0.563431,0.5862667,0.565496,0.16058207
0.011527944,-0.009239584,0.011895368,0.5704279,0.64083445,0.5413381,0.12619513
0.02785771,-0.04148543,-0.001974009,0.5878861,0.66105485,0.51644355,0.12316454
-0.022866521,0.02052795,6.292028e-05,0.5993934,0.6420674,0.5627835,0.1387634
0.011809462,-0.009826664,0.008388641,0.6300684,0.6663114,0.5259076,0.1236695
0.02388475,0.009615143,0.36285284,0.56143105,0.6534008,0.50208867,0.098465785
0.0073614055,-0.019280681,0.36409405,0.614768,0.6689557,0.48111507,0.11231257
0.026648844,3.4484998e-05,0.40355632,0.6165551,0.656045,0.47559163,0.0867412
-0.005383099,0.005637051,0.354808,0.6022257,0.6225156,0.14048038,0.110686906
0.032772984,0.009957905,0.3784136,0.6238158,0.6294489,0.1852141,0.0877924
0.050187293,-0.018087111,0.3531998,0.62968326,0.60808766,0.13374393,0.12061043
-0.0034242002,0.02777079,0.39698708,0.58611125,0.6180024,0.17306495,0.08930203
-0.0054542953,-0.0084821405,0.3720106,0.65132296,0.6208149,0.1401326,0.08044101
0.03214658,-0.030410498,0.39341497,0.58755296,0.61465204,0.11771058,0.092073426
0.034293424,0.0005215129,0.3960998,0.59824514,0.6397772,0.13040912,0.099000394
-0.008132166,0.0030125403,0.41361177,0.61776096,0.60272175,0.112747744,0.06487674
-0.0064556827,0.0051598423,0.40128264,0.6633621,0.58688843,0.119697064,0.07589802
-0.004064646,0.028813694,0.4046673,0.6203853,0.58415604,0.11750559,0.08569656
-0.025694994,-0.003534961,0.44941464,0.62741894,0.6104826,0.09550417,0.107601464
-0.017556071,-0.0015754241,0.43040094,0.65802586,0.5649655,0.16215189,0.027472237
-0.019642906,-0.021623777,0.49297598,0.62452364,0.5844689,0.13438848,0.012743173
-0.015293106,0.016473914,0.5050717,0.6079256,0.61032486,0.11467164,-0.007608467
-0.0010079193,0.0033719598,0.54875076,0.6239321,0.5847283,0.13101882,-0.010206428
0.0039930115,-0.009091837,0.5167578,0.6602931,0.5723064,0.10801835,-0.014313823
0.029941674,-0.039161827,0.5131536,0.6347125,0.5678246,0.06940938,-0.008346247
-0.021412453,0.027442873,0.5185763,0.67214376,0.5425195,0.18002598,0.0109709725
0.017864062,-0.026375987,0.52648836,0.6483419,0.5403613,0.12270505,-0.012558117
-0.0064791543,-0.0140249375,0.5306316,0.62055665,0.5478204,0.105113626,0.030972462
-0.0035656104,0.004590554,0.5218339,0.63416106,0.551198,0.0761569,0.009900999
0.010543131,-0.026884416,0.52970135,0.6155789,0.5586144,0.08285455,0.0010061841
-0.025784578,-0.033200335,0.54020923,0.61859536,0.5352134,0.14369135,-0.006651261
0.0039412235,-0.046185922,0.57308793,0.7206836,0.55396235,0.13846646,0.020090112
-0.0007547073,0.010336188,0.5579418,0.65042955,0.5523913,0.12128097,0.022636643
0.005388552,-0.015364198,0.5655813,0.6460517,0.5294109,0.081667535,-0.027688116
0.0009462407,0.05370827,0.5991311,0.61495656,0.531063,0.131885,-0.018875094
0.04389228,-0.025100823,0.6034799,0.6572203,0.47964868,0.108362325,0.007478882
-0.018345037,-0.024019258,0.57563215,0.6460437,0.46922237,0.11011165,0.013143381
-0.016586613,-0.017274534,0.57219565,0.6597335,0.14759499,0.10354906,-0.011973485
-0.018805835,0.3530161,0.57090497,0.65662825,0.10922727,0.062065057,-0.021191923
-0.01782883,0.34386897,0.6052711,0.58806884,0.12901597,0.0657881,-0.0051470343
-0.019843195,0.3705505,0.5903839,0.59295887,0.14897545,0.07706153,0.022438416
0.016308814,0.34367287,0.58965003,0.59240586,0.16050382,0.097622015,-0.006650832
0.02056261,0.34046218,0.58384717,0.59075034,0.12579367,0.054593388,-0.03312629
-0.01963825,0.3368864,0.5873055,0.6130681,0.116477855,0.07611811,-0.0060316585
-0.025246164,0.33304194,0.61151534,0.59205604,0.13444223,0.0734868,0.0070559084
0.00045365034,0.3717196,0.5810571,0.641461,0.10507619,0.09023942,-0.011002207
-0.020394603,0.38053253,0.6293504,0.6345444,0.12155371,0.085216135,0.015813196
0.002933148,0.37829697,0.6006983,0.592589,0.12329005,0.048829466,0.0075914925
-0.006042237,0.42006862,0.6101389,0.6279189,0.12128004,0.09525297,-0.011335876
-0.040790644,0.42393604,0.5879823,0.61449695,0.12195874,-0.033740558,-0.0096128825
0.020099426,0.39675325,0.61589795,0.57147074,0.10180702,0.010994109,-0.047685873
0.024692113,0.3715427,0.6108351,0.5358811,0.10222621,-0.02222834,0.012979093
-0.023855818,0.3999556,0.61748844,0.5671177,0.10005303,-0.008321525,-0.018190391
-0.019728513,0.47807544,0.6488447,0.55382854,0.08078372,-0.0074547324,-0.019973617
-0.0066314414,0.48261976,0.62371665,0.5659286,0.118173875,-0.0083946,-0.02334582
-0.006033705,0.48737344,0.6048529,0.5584954,0.12734397,0.00076714304,-0.0035888897
7.413356e-05,0.4936972,0.60693413,0.5527198,0.12345292,-0.005267562,-0.035670612
0.026733615,0.50434613,0.63330853,0.5565193,0.10031551,0.002202506,-0.033153933
-0.017382955,0.5045471,0.64745575,0.51622057,0.08734742,-0.0045516104,-0.014894512
-0.030183291,0.5264745,0.62702686,0.54296416,0.11641973,-0.03950645,-0.026747612
-0.042176865,0.53443325,0.63489985,0.52005273,0.11224218,-0.009194499,-0.007885809
-0.029582009,0.5137973,0.63288796,0.5267966,0.101707295,-0.026240805,-0.026761193
-0.015998662,0.562081,0.6484726,0.53574234,0.13010572,-0.03752137,0.016564604
0.02018254,0.52157193,0.5803282,0.48575047,0.09251757,-0.021505415,-0.0018394672
-0.026433116,0.51319337,0.63172376,0.4981057,0.08570143,-0.012416178,-0.0024631657
-0.011977175,0.5574028,0.63694435,0.4947046,0.080603145,-0.0114594335,-0.028552169
-0.017153202,0.5375374,0.5892164,0.47998598,0.05510991,0.004295751,0.03128885
0.0065715504,0.56426907,0.59683007,0.5013183,0.097250536,0.008949867,-0.025976535
0.032971006,0.51358587,0.5959119,0.46182036,0.079579204,-0.010842024,-0.03184385
-0.028556094,0.5931816,0.59656787,0.11372827,0.089522235,-0.0075965906,-0.003803866
-0.028098328,0.58230793,0.5995577,0.10946616,0.11376601,-0.016403358,-0.014404977
0.0022031167,0.5422374,0.6119252,0.1442933,0.066689014,-0.0033355914,-0.03504779
-0.0054125665,0.54591066,0.62210095,0.11135059,0.025290897,-0.009310634,0.024866547
0.36978722,0.6120243,0.6239618,0.12910755,0.07919156,-0.020510184,9.1568734e-05
0.3494734,0.5667769,0.5829613,0.15808809,0.07039915,0.02324948,-0.019710064
0.33546966,0.5676381,0.58004093,0.1157054,0.04987808,-0.031083304,0.027862566
0.35924703,0.54164916,0.62030417,0.1380315,0.06991174,0.008560321,-0.004313215
0.374303,0.5824534,0.60381156,0.14776693,0.07510235,-0.047983564,-0.021135727
0.37314904,0.5872629,0.5892599,0.13339461,0.037837677,-0.0049939677,0.024362454
0.37140965,0.6083246,0.59363306,0.11098738,0.04810883,0.0070967795,-0.008454893
0.38703564,0.5680788,0.5799725,0.122600205,0.0075325053,-0.06014695,-0.0096976645
0.39343816,0.56754816,0.58730197,0.082407504,-0.036802683,-0.019591227,-0.03009719
0.40195656,0.6087138,0.566171,0.090913974,-0.021404194,-0.008429308,-0.02174932
0.39145872,0.62141645,0.5741918,0.09274421,-0.07559284,-0.018065345,-0.03131848
0.37922227,0.5712924,0.5343704,0.14793631,-0.053108227,-0.015908197,0.0053233993
0.389487,0.625625,0.5464347,0.085122645,-0.02068733,-0.021113217,-0.056025963
0.41457796,0.60587025,0.5421036,0.08303934,0.0003560488,-0.046088666,0.0031137012
0.37791017,0.6279252,0.54345495,0.0768897,-0.05180998,0.022791522,-0.04211624
0.4053285,0.6054991,0.52755815,0.107108735,-0.023443442,-0.03500548,-0.026093146
0.39369857,0.55711675,0.5304111,0.09687486,-0.03281406,-0.016616477,-0.031204028
0.4825412,0.6050258,0.5056364,0.113833554,-0.006602559,-0.03860111,-0.03606737
0.51288503,0.62961495,0.5415918,0.10356597,-0.05038464,-0.07154584,-0.01223289
0.4963713,0.59072775,0.5235125,0.060542308,-0.017790904,-0.044882715,-0.02649624
0.4985937,0.60087764,0.48545665,0.06998127,-0.03982978,-0.0557081,-0.04010994
0.47546455,0.6049921,0.49711674,0.11137801,-0.022658333,-0.005287743,-0.024039183
0.5224633,0.5502458,0.5146539,0.07791845,-0.026103215,-0.039619196,-0.04140357
0.5252032,0.6412278,0.4910274,0.1036181,-0.03287977,-0.038126014,-0.0385997
0.5601914,0.5891816,0.481774,0.074723884,-0.018649908,-0.049492758,-0.058151405
0.51527995,0.61657566,0.48790646,0.056185517,-0.027694644,-0.02668699,-0.037573878
0.530203,0.6038224,0.48981786,0.06726501,-0.031584974,-0.04325802,-0.019044757
0.5350663,0.6296481,0.4476302,0.051731776,-0.036417916,-0.0094424905,-0.028547088
0.5657596,0.6114001,0.4806366,0.057515778,-0.028097939,-0.02360912,0.006651367
0.5363086,0.59720796,0.097409174,0.07055148,-0.025568934,-0.04144632,0.022246543
0.5476701,0.5825081,0.111960195,0.07444383,-0.05015212,-0.013364618,-0.039653648
0.557993,0.61465204,0.110476404,0.030059868,-0.037717745,-0.030569509,-0.047394674
0.55318195,0.5593879,0.09947209,0.05914208,-0.052190643,-0.030656986,-0.008490592
0.54400414,0.6077817,0.08833159,0.045357235,-0.032241993,-0.060697783,-0.024740921
0.56016517,0.57073605,0.101845436,0.041696317,-0.043649446,-0.033224523,-0.009085315
0.5809732,0.61546195,0.1387834,0.054868933,-0.0167444,-0.02572917,-0.024183448
0.5420534,0.5911883,0.07772441,0.03873299,-0.01906233,-0.0058455323,-0.036404025
0.56819123,0.5982382,0.13744906,0.074888356,-0.051328182,-0.047911085,-0.036646914
0.554342,0.5842368,0.09701729,0.0684878,-0.033275235,0.012333085,-0.024573551
0.59492147,0.5446392,0.10149237,0.06582213,-0.02081416,-0.022447124,-0.037806768
0.5430959,0.55941105,0.07758855,-0.04383762,-0.037445582,-0.06432766,-0.009549392
0.56478256,0.586862,0.08240012,-0.053543836,-0.04885821,-0.051197823,-0.060340606
0.5857683,0.5733865,0.08623527,-0.03300722,-0.056495886,-0.0062278328,-0.010364943
0.61165863,0.59016347,0.07381304,-0.038008247,-0.017915929,-0.0101366965,-0.072469294
0.5810178,0.5709515,0.08894794,-0.047530707,-0.017299982,-0.034992374,-0.0324522
0.5730734,0.5397472,0.08335153,-0.059221398,-0.03986566,-0.032708354,-0.04232756
0.62350464,0.5392088,0.12683958,-0.036889024,-0.020735912,-0.059350867,-0.066385776
0.5584844,0.55309194,0.06480347,-0.044491496,-0.095714316,-0.00998125,-0.07761049
0.5448903,0.5005117,0.08844304,-0.02299409,-0.010209937,-0.05651637,-0.058711324
0.5989467,0.5758769,0.089580074,-0.023809312,-0.040250327,-0.02021661,-0.036197744
0.5812431,0.546716,0.06141869,-0.015445311,-0.034625776,-0.010420459,-0.049504988
0.5718548,0.5577532,0.09473202,-0.06299656,-0.044221003,-0.03684754,-0.05862963
0.6072991,0.49679145,0.07116811,-0.030138288,-0.010245304,-0.018807225,-0.011113831
0.5987174,0.5483466,0.027395274,-0.05305703,-0.059722345,-0.0015549205,-0.06315141
0.58312595,0.5629989,0.08851812,-0.063263714,-0.009366223,-0.033496052,-0.025273083
0.56922406,0.48672792,0.05103044,-0.047774635,-0.031277172,-0.042708628,-0.056982532
0.61255825,0.52321434,0.05043239,-0.018175095,-0.02709591,-0.040886253,-0.062005315
0.6082483,0.5023148,0.08313551,-0.047341604,-0.04647933,-0.054754995,-0.05197201
0.59325194,0.46577695,0.06039521,-0.008931619,-0.066405095,-0.05555239,-0.027842391
0.63201547,0.50076437,0.08362671,-0.029608045,-0.0219754,-0.03173748,-0.06801493
0.5733842,0.5016892,0.087379724,-0.04881175,-0.034701772,-0.044208936,-0.035180837
0.5638346,0.46697584,0.048155762,-0.018072715,-0.014041215,-0.034722302,-0.060488883
0.57992214,0.49617007,0.07477078,-0.032708906,-0.045492366,-0.071415566,-0.05723218
0.5921198,0.43324345,0.041621264,-0.060610596,-0.050344035,-0.043811783,-0.033946574
0.5970257,0.43028566,0.09919199,-0.0051253224,-0.014539611,-0.021699019,0.0011682814
0.58631784,0.45639136,0.038444486,-0.037453167,-0.004404859,-0.065021224,-0.06086308
0.5970238,0.10064198,0.07057458,-0.04260758,-0.04279656,-0.042652976,-0.028585892
0.5636486,0.084739365,0.06465361,-0.060434308,-0.058378804,-0.08041584,-0.0495779
0.6161082,0.114164755,0.051800843,-0.020072421,-0.027452571,-0.06977243,-0.053158056
0.5840005,0.10745844,0.02974632,-0.03365659,-0.04908251,-0.027848883,-0.02257458
0.60625756,0.11283689,0.03778469,-0.031755622,-0.03235513,-0.050526075,-0.061210845
0.58889186,0.092011,-0.004625777,-0.05482867,-0.049863566,-0.008236587,-0.06776031
0.58915627,0.10529124,0.04054618,-0.028333055,-0.013734786,-0.036366206,-0.03581155
0.58925885,0.08305905,0.040640872,-0.027115176,-0.059341237,-0.034739535,-0.013455772
0.58451885,0.1317476,0.033888895,-0.05906275,-0.03607659,-0.06721683,-0.030687291
0.5859796,0.07308648,-0.1054884,-0.07436208,-0.05579631,-0.05372438,-0.07416262
0.5971285,0.13007675,-0.07166944,-0.034729242,-0.051986836,-0.06100943,-0.058663364
0.5717565,0.08726947,-0.0616523,-0.07815742,-0.054931592,-0.06799931,-0.027098514
0.57914764,0.05763017,-0.041190412,-0.043983273,-0.03225143,-0.03374573,-0.015401385
0.5601758,0.1110387,-0.04156925,-0.056300934,-0.02898877,-0.030065713,-0.042781804
0.58763784,0.0847002,-0.051092274,-0.023314495,-0.036533024,-0.039709054,-0.05927125
0.54203534,0.097678326,-0.03531398,-0.055875767,-0.050178558,-0.06458023,-0.015098512
0.5881731,0.10357556,-0.06887414,-0.026203837,-0.045545697,-0.041734695,-0.04984117
0.5478063,0.08426938,-0.036474317,-0.058963206,-0.030724585,-0.086932585,-0.060795188
0.51631397,0.06404682,-0.039513204,-0.029008225,-0.030421812,-0.02254786,-0.064506695
0.54367715,0.093757145,-0.04178528,-0.008129545,-0.10314189,-0.07529938,-0.07323674
0.523546,0.07257943,-0.053304814,-0.07102495,-0.05510845,-0.072073184,0.007007603
0.54989904,0.08457345,-0.0133760525,-0.044150215,-0.054476105,-0.047685083,-0.021571772
0.5158209,0.026044533,-0.04045323,0.0046585067,-0.036932092,-0.046233952,-0.063443005
0.515606,0.076292865,-0.07000936,-0.049310863,-0.051978055,-0.05209761,-0.016006121
0.4822649,0.0527872,-0.046001308,-0.04973165,-0.036583748,-0.07316998,-0.04030137
0.5064065,0.096802756,-0.036241803,-0.03552149,-0.07286468,-0.028624509,-0.04180931
0.46224377,0.07434829,-0.06337696,-0.050793175,-0.0464137,-0.08533378,-0.06597313
0.4741848,0.0648064,-0.030151937,-0.0860819,-0.03393327,-0.08160276,-0.062219925
0.5160865,0.06783125,-0.04461856,-0.029613486,-0.08174689,-0.05439889,-0.053107712
0.51148456,0.03620554,-0.099429905,-0.09263931,-0.002307472,-0.07786502,-0.09189132
0.499044,0.0866827,-0.04690726,-0.061236534,-0.029082984,-0.028448196,-0.062637106
0.46583876,0.0920625,-0.061340895,-0.029071795,-0.053193245,-0.0767846,-0.05313052
0.47874576,0.058085613,-0.042795565,-0.06067001,-0.070107326,-0.022398619,-0.027348785
0.4740291,0.08000281,-0.034972955,-0.06773118,-0.057358954,-0.033154808,-0.0661882
0.4452157,0.03475475,-0.050271336,-0.0365893,-0.05249853,-0.029473463,-0.037931815
0.4926147,0.028114423,-0.021186087,-0.07151343,-0.04567788,-0.016749011,-0.09570101
0.47414085,0.042770624,-0.05838105,-0.07925142,-0.024793696,-0.053182352,-0.03146631
0.44610566,0.048523277,-0.042625558,-0.049631633,-0.06464388,-0.075381406,-0.07312885
0.44487974,0.0297944,-0.039337277,-0.059094597,-0.04418193,-0.057496287,-0.05283067
0.44221386,0.046256978,-0.057696477,-0.08062302,-0.08159814,-0.06708287,-0.047622696
0.04596456,0.039435156,-0.04048671,-0.043323144,-0.06433421,-0.07024602,-0.051858604
0.080838025,0.011125719,-0.068267494,-0.04708428,-0.048839696,-0.053356964,-0.05850963
0.07109266,0.039231416,-0.06513644,-0.06388017,-0.04285982,-0.062919155,-0.081515394
0.06361936,0.04386951,-0.083245076,-0.06282194,-0.07205995,-0.07203949,-0.07478612
0.076917976,0.027751902,-0.05247654,-0.04789687,-0.06612056,-0.06221277,-0.037376083
0.11735094,0.04507971,-0.051108297,-0.0338061,-0.028402196,-0.04663376,-0.06956088
0.093040496,-0.004635929,-0.03433585,-0.06357698,-0.034682944,-0.03879277,-0.059987027
0.067595884,0.026738212,-0.04240528,-0.04513431,-0.054058935,-0.09028656,-0.088069804
0.08923655,-0.08193983,-0.06423013,-0.04723021,-0.10326712,-0.06459824,-0.041362748
0.10450725,-0.08112115,-0.082403116,-0.041253373,-0.008616868,-0.061666384,-0.08522918
0.09371812,-0.07176261,-0.05048698,-0.0583578,-0.05954262,-0.08279438,-0.04082473
0.07509362,-0.078288816,-0.037232548,-0.077694125,-0.06569895,-0.061841726,-0.08070185
0.059608363,-0.07071031,-0.044646695,-0.06900038,-0.07019759,-0.056790482,-0.039460234
0.0851284,-0.06433533,-0.038362775,-0.053195257,-0.052524984,-0.049675632,-0.059848465
0.07762148,-0.043610312,-0.06459119,-0.023984114,-0.052621752,-0.05881024,-0.07152855
0.08621474,-0.0670768,-0.069986,-0.07033402,-0.041641064,-0.07827261,-0.028645586
0.07954494,-0.09266549,-0.07569101,-0.04485723,-0.07947422,-0.020712378,-0.06233008
0.08633498,-0.03845011,-0.0623694,-0.0678126,-0.067501366,-0.044668935,-0.06848771
0.053113718,-0.078290895,-0.0631209,-0.059339713,-0.020938175,-0.050494693,-0.04336673
0.08861315,-0.063020244,-0.05771228,-0.031537898,-0.05735402,-0.04174921,-0.091454975
0.06463677,-0.053210966,-0.06472765,-0.04685585,-0.065592185,-0.057249516,-0.11268501
0.10058243,-0.05844447,-0.06510924,-0.08726267,-0.08126903,-0.03671066,-0.03927708
0.043659143,-0.040847182,-0.07826465,-0.074180275,-0.05261209,-0.061593335,-0.07945681
0.09050141,-0.053443912,-0.044191595,-0.03789955,-0.042403612,-0.06298903,-0.045731526
0.058053467,-0.080542475,-0.06178592,-0.06047872,-0.045824528,-0.050611712,-0.062393036
0.03935419,-0.020036444,-0.06709657,-0.086584486,-0.06878371,-0.032080535,-0.08688748
0.040966656,-0.06001152,-0.078846775,-0.080277234,-0.056673143,-0.033657216,-0.05175254
0.0424741,-0.06713459,-0.09082604,-0.05011791,-0.030754592,-0.05233083,-0.07239118
0.055576228,-0.045197953,-0.038317177,-0.044588257,-0.043058816,-0.054144226,-0.08602327
0.05573702,-0.059775207,-0.05367145,-0.06440712,-0.08044748,-0.050843377,-0.08579015
0.031969596,-0.057066504,-0.097529426,-0.015544792,-0.11597117,-0.04533865,-0.09970784
0.04109604,-0.015493305,-0.05007414,-0.048853938,-0.059401534,-0.03936235,-0.057276487
0.08254468,-0.071124405,-0.047172353,-0.0704916,-0.049650613,-0.07035366,-0.08432999
0.072343245,-0.07226125,-0.06341851,-0.08222015,-0.08769052,-0.039544806,-0.06660047
0.044589315,-0.06385758,-0.03422693,-0.08568683,-0.06636494,-0.059329245,-0.0698236
0.034671098,-0.04504101,-0.062136933,-0.0597629,-0.071745306,-0.053452693,-0.08530246
0.034337953,-0.09688324,-0.09508903,-0.0765281,-0.06466683,-0.039113574,-0.097210556
0.04221248,-0.10634396,-0.059729464,-0.03355797,-0.07792677,-0.0520916,-0.016358627
0.007469958,-0.07905448,-0.06241423,-0.03798594,-0.041501954,-0.04899226,-0.06828283
0.02074126,-0.100269005,-0.07965648,-0.054929215,-0.06463117,-0.07537892,-0.031122888
-0.009540215,-0.076364584,-0.056396782,-0.09144788,-0.085448295,-0.03790173,-0.044569224
0.029738711,-0.058094412,-0.10149771,-0.08158878,-0.049795166,-0.05423067,-0.07456771
0.03260147,-0.08623486,-0.04860855,-0.043306336,-0.093703635,-0.065898575,-0.06480059
0.007878056,-0.097230926,-0.086256824,-0.07995572,-0.043004505,-0.046672903,-0.06565607
0.04688712,-0.06758118,-0.08866684,-0.046525087,-0.049146734,-0.01721131,-0.032083906
-0.011260549,-0.0519896,-0.07151697,-0.059748393,-0.041444965,-0.09261896,-0.052643795
-0.018203132,-0.1034115,-0.060852576,-0.068477675,-0.072676964,-0.08558669,-0.08565749
0.013385657,-0.05337796,-0.06650413,-0.08383927,-0.07970489,-0.016076503,-0.062750235
0.027633935,-0.05370607,-0.08490538,-0.07193707,-0.06837176,-0.061518297,-0.053965908
-0.036642227,-0.05123908,-0.08044257,-0.06652782,-0.07200952,-0.06650339,-0.093827166
-0.07976606,-0.046218764,-0.09324922,-0.04993759,-0.08364309,-0.072896086,0.28977975
-0.049281336,-0.026814675,-0.07534855,-0.08856966,-0.08192742,-0.046686232,0.3132003
-0.0718907,-0.07824237,-0.049620107,-0.07637687,-0.07844799,-0.018895583,0.27540886
-0.07483764,-0.06919366,-0.07147036,-0.07048863,-0.09478517,-0.084688865,0.28431147
-0.053975448,-0.079977416,-0.05446036,-0.05839508,-0.05808938,-0.07358618,0.32791632
-0.05886472,-0.07187164,-0.042803153,-0.09008046,-0.07295712,-0.07892572,0.30349842
-0.10370053,-0.04151522,-0.083933055,-0.09850408,-0.078340255,-0.05751539,0.29668432
-0.042902365,-0.09933346,-0.07616463,-0.05895387,-0.094640255,-0.047985304,0.33957422
-0.0450908,-0.08991362,-0.029268768,-0.10305161,-0.09590008,-0.040273968,0.33893096
-0.0854623,-0.045407426,-0.044064175,-0.04725145,-0.034232765,-0.05761668,0.33460572
-0.06529236,-0.052807696,-0.10665652,-0.07632695,-0.085753575,-0.022821773,0.36039034
-0.063584164,-0.080727406,-0.0657218,-0.104415394,-0.061254203,-0.08495983,0.3668471
-0.06850659,-0.056632027,-0.07370887,-0.08332847,-0.070467375,-0.09041088,0.3461667
-0.08498042,-0.06715,-0.057445254,-0.06639184,-0.12947808,-0.04458743,0.39204967
-0.087659985,-0.044222023,-0.089127086,-0.08488154,-0.0383785,-0.07177087,0.46603128
-0.074990734,-0.072989464,-0.091271825,-0.07407906,-0.06079798,-0.10199846,0.40152538
-0.05127616,-0.0542181,-0.08825216,-0.059929173,-0.09008414,-0.081052,0.42727464
-0.06410876,-0.022140522,-0.08641933,-0.07902457,-0.07554809,-0.06986759,0.4092521
-0.082642004,-0.06326773,-0.058923233,-0.093970865,-0.09821338,-0.08815468,0.4541575
-0.060043626,-0.07449104,-0.099101625,-0.08145728,-0.03895319,-0.09577081,0.44253188
-0.13269526,-0.06127547,-0.08817669,-0.04742761,-0.09387757,-0.079877,0.45638266
-0.052994832,-0.083275765,-0.111750394,-0.04226886,-0.08643182,-0.09726082,0.5001994
-0.111009076,-0.02845545,-0.056072447,-0.11661333,-0.09080602,-0.063512184,0.44881442
-0.08370719,-0.072856955,-0.051037773,-0.054637816,-0.07485078,-0.11533447,0.4918307
-0.09909426,-0.08215953,-0.08324233,-0.071697906,-0.049294528,-0.07489236,0.49683452
-0.10283588,-0.09365603,-0.08290124,-0.058462597,-0.041154765,-0.06655206,0.49763632
-0.053966016,-0.05523815,-0.06811812,-0.08819232,-0.085162476,-0.07899338,0.5066191
-0.08677578,-0.060078006,-0.047932114,-0.11278702,-0.06985658,-0.055557296,0.4638718
-0.07072978,-0.087606944,-0.06948764,-0.06597008,-0.076021746,-0.10507108,0.4966331
-0.078835264,-0.06636783,-0.091847695,-0.0967164,-0.09752904,-0.09191865,0.5477822
-0.06859193,-0.10830387,-0.110509194,-0.1058986,-0.029681634,-0.084733434,0.49687245
-0.07683109,-0.07466811,-0.10067005,-0.10473555,-0.05111233,-0.064113036,0.557818
-0.10426103,-0.06954606,-0.0771368,-0.06658291,-0.07481887,-0.074231036,0.49981204
-0.0589084,-0.04468714,-0.091940284,-0.076044686,-0.047196213,-0.03596642,0.50065595
-0.08894029,-0.09448154,-0.07516581,-0.06341584,-0.05482303,-0.095180884,0.51519376
-0.110427104,-0.10486252,-0.09035394,-0.06591396,-0.077658236,-0.10719524,0.55962664
-0.08808694,-0.0974332,-0.10068757,-0.087943316,-0.07300537,0.30741397,0.5287203
-0.04973749,-0.106484056,-0.103293315,-0.081162155,-0.049510162,0.24921513,0.5489297
-0.06297516,-0.05324645,-0.048732504,-0.090208344,-0.098902665,0.29757607,0.5456532
-0.08717841,-0.049232583,-0.062425613,-0.08441193,-0.046731554,0.27030417,0.54502946
-0.08741516,-0.07402567,-0.045819644,-0.0997751,-0.08493225,0.2543322,0.5733178
-0.08708619,-0.05622759,-0.069854476,-0.072843805,-0.050159957,0.2939401,0.5647604
-0.039340876,-0.07819667,-0.08947566,-0.05937342,-0.08098037,0.3250172,0.52774376
-0.07345832,-0.08299926,-0.05463021,-0.09742929,-0.0743449,0.28805557,0.54613894
-0.072716236,-0.08797782,-0.081978425,-0.055691674,-0.082003236,0.32934707,0.5873439
-0.060930282,-0.087743774,-0.07711911,-0.07926552,-0.092172824,0.3382852,0.55946696
-0.07697789,-0.11270971,-0.08261016,-0.076932095,-0.087154776,0.3026637,0.52329504
-0.08715108,-0.076685145,-0.14090832,-0.115958825,-0.05438801,0.32847688,0.5248628
-0.08611263,-0.082992315,-0.050090935,-0.11833088,-0.12846892,0.36937153,0.5713334
-0.083831884,-0.06749265,-0.072579786,-0.079517536,-0.10717918,0.35550147,0.5672813
-0.083357364,-0.08074245,-0.076016456,-0.066818275,-0.09712235,0.41809946,0.53428257
-0.06827221,-0.086078875,-0.08406032,-0.09625241,-0.104391694,0.438354,0.5669152
-0.08199659,-0.10045937,-0.07976695,-0.049633626,-0.05283591,0.4228924,0.58297867
-0.06859223,-0.081801966,-0.09519061,-0.06854631,-0.058091488,0.46524975,0.5789521
-0.0850677,-0.06868862,-0.07112178,-0.10162019,-0.07161273,0.4714456,0.58046067
-0.082087815,-0.1065273,-0.10980249,-0.083043545,-0.0964166,0.45762736,0.5578418
-0.1238305,-0.08211701,-0.08014512,-0.034327902,-0.057165448,0.46567443,0.54131275
-0.065744705,-0.0794104,-0.07283979,-0.10892254,-0.115833856,0.44675565,0.53472805
-0.077345066,-0.09863613,-0.088248216,-0.073709436,-0.041435182,0.4451804,0.54012
-0.064517014,-0.09623434,-0.07705986,-0.0909321,-0.09816981,0.4699949,0.5204165
-0.1426035,-0.080066174,-0.10450508,-0.070540465,-0.0899191,0.4808994,0.5280002
-0.04311087,-0.107546784,-0.1041949,-0.059532892,-0.09346524,0.50883317,0.55771863
-0.08786892,-0.07807866,-0.080342785,-0.09280187,-0.10653928,0.5107734,0.49684677
-0.06311103,-0.10318177,-0.071703695,-0.06289644,-0.046772424,0.50057524,0.4948097
-0.10626915,-0.064213954,-0.122968346,-0.041046962,-0.06969314,0.52505094,0.53861266
-0.07341068,-0.038909607,-0.07522575,-0.08434066,-0.06135675,0.48653835,0.5111628
-0.106928386,-0.10307521,-0.0967241,-0.0701623,-0.11033346,0.5309276,0.47560427
-0.09852814,-0.075368606,-0.08990888,-0.09786158,-0.082434006,0.49734864,0.50862926
-0.0479636,-0.100779064,-0.11303458,-0.085859045,-0.07582366,0.5415296,0.50130177
-0.090248115,-0.065615386,-0.103466816,-0.08996797,-0.08101934,0.5198483,0.49208167
-0.082274824,-0.11192865,-0.067300975,-0.07068476,-0.10983095,0.48332873,0.5095292
-0.06940991,-0.077199526,-0.08615399,-0.06271774,-0.06530126,0.54087555,0.46405706
-0.07708417,-0.10445759,-0.094653375,-0.0891909,-0.0845668,0.5452388,0.48568255
-0.08417474,-0.09132281,-0.089512885,-0.05651066,-0.1062824,0.5224885,0.47570306
-0.08006796,-0.107987694,-0.07758295,-0.056766238,-0.12447219,0.5265627,0.47497833
-0.0394817,-0.07110301,-0.07874012,-0.07061294,0.27907974,0.5329597,0.43367904
-0.08888397,-0.1044712,-0.08923213,-0.09805213,0.3219234,0.4996044,0.45177442
-0.08388995,-0.07687265,-0.06605275,-0.10014851,0.25846663,0.49256307,0.4563332
-0.06707793,-0.094972976,-0.06868176,-0.104338646,0.2879258,0.5674331,0.46027932
-0.06615833,-0.0905583,-0.08000141,-0.06928553,0.31235784,0.52625436,0.47971258
-0.06470482,-0.08549031,-0.08735319,-0.11268079,0.27027,0.5809678,0.45204464
-0.07584614,-0.10385724,-0.07547432,-0.07508399,0.29146135,0.57218856,0.4381047
-0.11165491,-0.08458746,-0.08250946,-0.11041699,0.28913537,0.57683337,0.4470843
-0.056298975,-0.058360912,-0.0677516,-0.07249668,0.33118907,0.53298295,0.40817142
-0.112066045,-0.104701035,-0.07114791,-0.088794746,0.34304023,0.5141108,0.43774188
-0.08325669,-0.0658732,-0.10967448,-0.06263663,0.3246204,0.5246213,0.075994864
-0.104563914,-0.059516445,-0.11119766,-0.0666493,0.309389,0.5373001,0.04363886
-0.09092889,-0.10596922,-0.10367111,-0.060944814,0.3220244,0.49842498,0.08993331
-0.08323732,-0.118913665,-0.0702898,-0.060596194,0.3227979,0.53583163,0.05924184
-0.083550595,-0.083938524,-0.12150392,-0.087105125,0.39666092,0.54054743,0.092962906
-0.08170322,-0.10108978,-0.08224649,-0.1133175,0.42069048,0.517724,0.05391941
-0.05803002,-0.05293218,-0.08305339,-0.11135471,0.44059518,0.5216249,0.035321634
-0.08139489,-0.08976942,-0.06721261,-0.13220255,0.4451117,0.536636,0.029866606
-0.09550875,-0.106669605,-0.08701884,-0.11229893,0.44118828,0.5465785,0.036712635
-0.071502626,-0.113727555,-0.11764856,-0.08940789,0.44837695,0.5198332,0.030965272
-0.06715242,-0.06914373,-0.110128924,-0.10213491,0.4513225,0.5414842,0.066336565
-0.115650155,-0.10252167,-0.114737906,-0.09470071,0.43255982,0.5361586,0.038801357
-0.07930487,-0.090376295,-0.10201175,-0.08139856,0.46708843,0.53193593,0.005527355
-0.07738299,-0.07229039,-0.095064476,-0.09748775,0.45742428,0.51532906,0.040450286
-0.097509995,-0.10124389,-0.11486755,-0.1139953,0.44718876,0.49886832,0.0370388
-0.06419556,-0.09262827,-0.062296458,-0.09277437,0.48641473,0.55642784,0.02345121
-0.09486048,-0.092190735,-0.118365,-0.10982918,0.4714556,0.5318651,0.03642707
-0.0894962,-0.07834124,-0.065085664,-0.097423464,0.49275795,0.5359322,0.028402513
-0.09561622,-0.0803399,-0.068451524,-0.06529925,0.50948995,0.51050293,0.04012768
-0.09198895,-0.09670281,-0.07433448,-0.09771064,0.47768703,0.5050536,0.03707842
-0.11437047,-0.09117199,-0.1063203,-0.057025816,0.5025078,0.51410764,0.030962782
-0.121389106,-0.100023665,-0.08573907,-0.06395537,0.46824813,0.46336415,-0.0042664665
-0.06083979,-0.12228214,-0.11827731,-0.104315996,0.53871495,0.47333303,0.0620976
-0.1098096,-0.08771836,-0.07465223,-0.11509285,0.48430592,0.47504428,-0.013434478
-0.11283739,-0.055165704,-0.09448923,-0.09406062,0.504428,0.4770897,0.0130410455
-0.13621518,-0.11082176,-0.10133378,-0.070080824,0.5445424,0.46357733,-0.0083807325
-0.106063135,-0.108744495,-0.117758796,-0.103087716,0.5159468,0.48262817,0.019290818
-0.119880885,-0.110833645,-0.1429692,-0.07525729,0.49936303,0.472214,0.011952421
-0.06071265,-0.07906112,-0.11432377,-0.06938415,0.5400565,0.4928694,0.0035940954
-0.073489144,-0.084715776,-0.07142952,-0.109166,0.5418994,0.5087302,0.035075583
-0.10757969,-0.09698744,-0.10187335,-0.107337706,0.5175275,0.4280585,0.024607113
-0.048897836,-0.11230694,-0.09733313,0.2728031,0.5216033,0.45014176,-0.006420925
-0.07443977,-0.09222755,-0.080964,0.26742423,0.5251118,0.44380793,0.013856163
-0.1006989,-0.12549472,-0.0580889,0.2564016,0.53120446,0.43413883,0.026687855
-0.14431624,-0.0914596,-0.06782804,0.2687112,0.498817,0.40607747,0.015011423
-0.048633795,-0.07702216,-0.11389934,0.2798712,0.53418535,0.4026091,-0.012179269
-0.12236726,-0.1195998,-0.13342723,0.25540447,0.57443506,0.41877043,-0.043729205
-0.12760562,-0.125348,-0.047505356,0.30732593,0.52158564,0.387897,-0.007926551
-0.07436671,-0.06322936,-0.049438287,0.28764075,0.5283884,0.40266594,-0.0035708114
-0.046142202,-0.107172444,-0.09116818,0.2466303,0.51674384,0.04291875,-0.034885198
-0.06736957,-0.07233608,-0.120464794,0.3068042,0.55282205,0.049691252,-0.09460413
-0.08389328,-0.09825142,-0.07590693,0.2973127,0.56460994,0.02676665,-0.09682922
-0.08339145,-0.098525636,-0.09744621,0.35066718,0.563924,0.04791113,-0.06753232
-0.07833195,-0.086632006,-0.097659886,0.30981112,0.51493365,0.02602662,-0.05832394
-0.08033405,-0.1131926,-0.07762345,0.30407774,0.5492706,0.045698684,-0.072008334
-0.0899998,-0.092973694,-0.088936135,0.34057987,0.56713545,0.06806732,-0.09733475
-0.09364926,-0.10336307,-0.11944958,0.398207,0.54764444,0.045249585,-0.072778955
-0.09709343,-0.122251436,-0.10233641,0.40214947,0.5458154,0.045174096,-0.082865804
-0.111027785,-0.08919885,-0.082725435,0.43410474,0.525416,0.053744264,-0.09744649
-0.10166755,-0.10132021,-0.08584901,0.4091332,0.5376588,0.007949487,-0.05420625
-0.13001738,-0.099298745,-0.090917915,0.4066748,0.5561972,0.0689771,-0.11091862
-0.098227866,-0.120464295,-0.07759261,0.4760662,0.53605634,0.01202283,-0.084182896
-0.11613435,-0.06453452,-0.10359687,0.4587087,0.5023556,0.049222197,-0.07957132
-0.11853441,-0.07892834,-0.09288923,0.44725192,0.5158374,0.045020387,-0.1022126
-0.09296346,-0.07727822,-0.16407292,0.45772725,0.5465899,0.010451407,-0.08537857
-0.068818636,-0.10276757,-0.105651684,0.47301656,0.52615505,0.047044843,-0.07774874
-0.07838832,-0.13133831,-0.08147659,0.48730877,0.5191078,0.03515611,-0.09186196
-0.12825926,-0.057790898,-0.104657136,0.4575041,0.5025241,0.06129303,-0.08739933
-0.116735026,-0.09816441,-0.10626701,0.4845655,0.53406656,0.02561604,-0.094833836
-0.07821888,-0.1120103,-0.11786336,0.47156355,0.5400464,0.017794566,-0.0810839
-0.11677451,-0.088788725,-0.07705744,0.48220783,0.5283799,0.007849667,-0.10170434
-0.1017065,-0.07387142,-0.086244576,0.49332464,0.52810144,-0.018579606,-0.10344979
-0.08630049,-0.09776255,-0.08079324,0.49393278,0.4880257,0.008029213,-0.09689033
-0.11675473,-0.07181634,-0.13191213,0.5125644,0.48096454,0.0069463477,-0.07371447
-0.09536526,-0.07581278,-0.100681774,0.5112116,0.4834284,0.01574093,-0.13242003
-0.12423683,-0.11908394,-0.10315853,0.47475213,0.48273465,-0.019961324,-0.115743704
-0.109665826,-0.11111427,-0.10324991,0.48103267,0.5058134,0.00168763,-0.05212307
-0.0913236,-0.078568496,-0.11003979,0.5038954,0.495564,0.015926847,-0.09221547
-0.12965849,-0.15205087,-0.104720704,0.5507889,0.47789383,0.01581343,-0.105939336
-0.08906711,-0.100865714,-0.080883704,0.49993634,0.43320534,-0.037023507,-0.081979565
-0.09834596,-0.12656982,-0.13621022,0.5153799,0.42260137,0.012139315,-0.11365374
-0.0869786,-0.10755948,-0.062482506,0.5112173,0.45553356,-0.009112391,-0.14008418
-0.09362393,-0.10407861,-0.08842539,0.513086,0.46252355,-0.010103001,-0.09100621
-0.07089181,-0.10533951,-0.09902126,0.52977663,0.4373542,-0.055944026,-0.1127903
-0.09574115,-0.10929087,-0.080108956,0.556094,0.47110596,0.018938435,-0.09621785
-0.106903374,-0.12025814,-0.12735195,0.5388855,0.40485835,-0.009703884,-0.09172725
-0.095937535,-0.05254526,0.24370418,0.5152037,0.39587831,-0.0462028,-0.095541164
-0.087584354,-0.06110107,0.26020905,0.5876672,0.40013883,-0.0104294,-0.13263021
-0.09753854,-0.12175705,0.29547912,0.5353222,0.39260048,-0.013429044,-0.09799012
-0.09776793,-0.066937424,0.27267885,0.52317375,0.41023913,0.0017225182,-0.08968772
-0.112682216,-0.106631696,0.28795275,0.5637466,0.03618158,-0.10483616,-0.12664357
-0.111961626,-0.09611986,0.27240357,0.5267286,0.012793234,-0.098463684,-0.12908708
-0.12681553,-0.1000289,0.29907468,0.5697922,0.060673133,-0.11161958,-0.12014391
-0.0638303,-0.112016805,0.3279231,0.5193635,0.0066916076,-0.08686286,-0.08388654
-0.1237561,-0.079201795,0.31922573,0.56543785,0.019473199,-0.114548646,-0.13884516
-0.112792544,-0.09641671,0.30251804,0.54073745,0.007408478,-0.11679425,-0.08233897
-0.113356784,-0.108519666,0.32238278,0.56223524,0.042928513,-0.10034459,-0.09114753
-0.08114294,-0.12513322,0.3250416,0.5739656,0.041389264,-0.1235587,-0.10419147
-0.1049918,-0.116964705,0.3281326,0.5126129,0.074838705,-0.06705018,-0.1287054
-0.074187934,-0.13197038,0.34463954,0.55993396,0.053586878,-0.060597442,-0.11507212
-0.11266115,-0.09894687,0.34877852,0.5052129,0.06290378,-0.10826314,-0.083553255
-0.093658604,-0.1231718,0.40488538,0.5112391,0.0385637,-0.1269704,-0.07410398
-0.11599117,-0.10459544,0.42642623,0.514726,0.011934055,-0.092552386,-0.119911484
-0.056425575,-0.07192652,0.41195133,0.5392983,0.032676958,-0.108970605,-0.07649129
-0.12312344,-0.07538548,0.40703923,0.52813774,0.040566668,-0.07587785,-0.08565397
-0.09321656,-0.10005851,0.42585954,0.5222075,0.041359596,-0.115155905,-0.09954972
-0.08677753,-0.10119476,0.43533233,0.5263692,0.016362587,-0.0885628,-0.114210166
-0.09121576,-0.06189425,0.40909296,0.5329867,0.03407657,-0.09721187,-0.11111954
-0.10323475,-0.089113876,0.46485472,0.5320649,0.0040933797,-0.11305423,-0.06307055
-0.10216126,-0.106120974,0.39748034,0.5379458,0.00030503757,-0.09476385,-0.095996015
-0.09872305,-0.12811965,0.51215595,0.54964983,-0.002764422,-0.08202863,-0.073001914
-0.10257233,-0.09175483,0.4927825,0.5098336,0.018389,-0.097895324,-0.094801135
-0.08038631,-0.083077416,0.46226138,0.4966765,-0.007350015,-0.097718194,-0.10871785
-0.05548361,-0.1123271,0.4722567,0.51603323,0.005987598,-0.11714974,-0.08801227
-0.11087267,-0.09389878,0.48256296,0.47736928,0.030782655,-0.07683874,-0.056566134
-0.12714624,-0.107021645,0.4690033,0.48300084,-0.009649829,-0.07885925,-0.11263251
-0.10154175,-0.10345676,0.48876828,0.51271284,-0.0009778877,-0.10798729,-0.08149873
-0.04820643,-0.14955705,0.4860106,0.4862238,0.008684272,-0.10228638,-0.095990434
-0.11589719,-0.104259335,0.4908241,0.46035564,0.01030095,-0.07153929,-0.12881407
-0.06706304,-0.08045799,0.50000095,0.45036972,-0.0065421835,-0.12251679,-0.12928285
-0.06631161,-0.11249368,0.47360563,0.47662085,0.017230684,-0.08777986,-0.1089053
-0.11095622,-0.09883393,0.50401336,0.4938009,0.011322421,-0.11105673,-0.09293468
-0.0885222,-0.11502088,0.50967705,0.4886874,0.020301042,-0.06434031,-0.08233441
-0.067349926,-0.09270903,0.51201075,0.4633261,-0.0061663324,-0.09864892,-0.13133612
-0.107514985,-0.10426289,0.5079816,0.49611855,-0.016856987,-0.07472486,-0.08687848
-0.10401718,-0.11873041,0.53775775,0.44851723,-0.022347044,-0.115172125,-0.10231318
-0.11159092,-0.07330628,0.51046723,0.44235846,-0.00467448,-0.12492788,-0.09989103
-0.12026275,-0.08138897,0.524463,0.38814175,-0.020504951,-0.1046528,-0.088195376
-0.112962045,-0.112074636,0.5480746,0.42475,-0.026517555,-0.09472283,-0.06505439
-0.12446277,-0.0900282,0.5225886,0.4447921,-0.026297078,-0.110198595,-0.093911126
-0.099308334,-0.089241765,0.53034765,0.45293504,-0.033226483,-0.084823854,-0.12712474
-0.115394086,-0.0871486,0.52584726,0.3988064,-0.017817078,-0.104193695,-0.103736475
-0.0953221,-0.13388294,0.55407274,0.41826445,-0.052316777,-0.14162657,-0.082955144
-0.13111751,-0.07986747,0.5255546,0.42342013,-0.093939275,-0.08894336,-0.08229873
-0.09338235,0.2435454,0.557593,0.39602664,-0.08646898,-0.117650695,-0.08668347
-0.08332831,0.2532727,0.5309037,-0.0026600782,-0.11161647,-0.107230835,-0.11019951
-0.13987112,0.31858924,0.5166682,0.047165062,-0.06155566,-0.06893378,-0.12735291
-0.09251136,0.27718255,0.54815906,0.05662208,-0.099640064,-0.06453626,-0.088202335
-0.07543378,0.26864192,0.5290244,0.021579932,-0.13121402,-0.11149703,-0.1242719
-0.124173224,0.23739427,0.5479058,0.03454119,-0.10560527,-0.088424675,-0.08612019
-0.06652079,0.3143345,0.48111752,0.015571477,-0.09871911,-0.11101772,-0.08610644
-0.09158225,0.2645801,0.53585124,-0.013702934,-0.09098329,-0.1057001,-0.1093165
-0.114051856,0.2762654,0.5264282,0.05722051,-0.10510023,-0.112067126,-0.10220088
-0.101054564,0.29446062,0.51406014,0.035547946,-0.120170586,-0.13442606,-0.095965624
-0.08875878,0.33407182,0.5237973,0.0664813,-0.121824935,-0.09802422,-0.11222161
-0.09838993,0.32576558,0.52275676,0.050541837,-0.11298203,-0.094146736,-0.12754364
-0.08911822,0.3116014,0.53247195,0.025141831,-0.11104885,-0.11331338,-0.10067773
-0.11828869,0.32528043,0.5051183,0.029356431,-0.1225747,-0.07811938,-0.098574564
-0.09646846,0.3113613,0.53765607,0.041101344,-0.114511944,-0.10857728,-0.072634734
-0.12810901,0.40549448,0.5573536,0.047837313,-0.08664555,-0.11257895,-0.11547456
-0.102036856,0.41024542,0.53417987,0.03363938,-0.06684408,-0.089282274,-0.07844242
-0.117866695,0.4341072,0.5431067,0.047949005,-0.084679306,-0.13064218,-0.12272993
-0.11447392,0.43990293,0.5470179,0.018520193,-0.0736461,-0.08162974,-0.12665537
-0.07501482,0.43613943,0.5478907,0.0030927798,-0.08025432,-0.10778007,-0.105753936
-0.077882424,0.42458507,0.5584331,0.020287618,-0.08304603,-0.07992291,-0.11852681
-0.08749639,0.4521108,0.5087514,0.024202151,-0.10643508,-0.07391655,-0.12685147
-0.121494524,0.44074622,0.5019072,-0.005450671,-0.09683005,-0.0868452,-0.06076166
-0.105944134,0.4261261,0.52932465,-0.009705444,-0.10802835,-0.115855426,-0.10864892
-0.07532029,0.44474372,0.52503675,0.024393518,-0.10396438,-0.124598876,-0.053356167
-0.09671276,0.45941016,0.52343947,0.0057037477,-0.09818376,-0.12822856,-0.11944178
-0.05312396,0.48069796,0.5426054,0.0088679325,-0.085239224,-0.07745233,-0.13368148
-0.09160622,0.46345982,0.501781,0.0033140206,-0.091006115,-0.10216858,-0.073646784
-0.095592216,0.44744468,0.5066515,0.039212767,-0.10266978,-0.11141764,-0.11396633
-0.10557473,0.47712222,0.47493735,0.032299098,-0.09828162,-0.10203404,-0.09661508
-0.096679375,0.48247463,0.53351104,-0.01944931,-0.09068092,-0.07773776,-0.12646286
-0.102355964,0.48799875,0.48017713,-0.0071529276,-0.08595868,-0.08373177,-0.10006883
-0.08509936,0.50661325,0.47669202,0.018680008,-0.12964144,-0.090491414,-0.12669405
-0.080081046,0.51238453,0.47171563,0.011867983,-0.12076287,-0.08645737,-0.10069324
-0.11488702,0.4837676,0.46139416,-0.00287767,-0.077021025,-0.095563784,-0.108645886
-0.12574263,0.48682925,0.45519307,-0.026704835,-0.10033536,-0.09307571,-0.09451261
-0.1357914,0.4817022,0.454647,-0.019533942,-0.107548825,-0.09464679,-0.08655346
-0.08885538,0.51968944,0.43299523,-0.018174222,-0.104285195,-0.099016435,-0.09419361
-0.12102905,0.53774863,0.43964693,-0.0042795553,-0.10423582,-0.08389424,-0.08994079
-0.14196463,0.5053811,0.48922813,0.022250272,-0.087748066,-0.091681175,-0.10108747
-0.091078945,0.50961536,0.45971233,-0.02759037,-0.12101084,-0.116464816,-0.10755689
-0.048932813,0.54639083,0.45812386,-0.03642503,-0.098297246,-0.088215314,-0.08939043
-0.09885511,0.52962697,0.45761418,-0.020150077,-0.09381133,-0.09378875,-0.10096265
-0.08190335,0.53054994,0.4650761,0.00056056696,-0.09074781,-0.0864449,-0.100139365
-0.09697466,0.50016457,0.38714904,-0.051128965,-0.09415397,-0.10069539,-0.09065635
-0.100525714,0.5395628,0.39202616,-0.06947524,-0.0882298,-0.08231312,-0.11921223
-0.08010167,0.50925815,0.39445955,-0.10192382,-0.109937124,-0.09971137,-0.069890976
-0.104222566,0.5068599,0.39491513,-0.11310347,-0.11725313,-0.08393948,-0.10340421
-0.0930017,0.5241507,0.39194122,-0.13035333,-0.04920946,-0.10747898,-0.09586592
-0.091846675,0.52076215,0.035869345,-0.08415021,-0.10430592,-0.10602571,-0.09917102
-0.11157212,0.5292836,0.048510976,-0.101633735,-0.1018994,-0.08616926,-0.08515544
-0.07829774,0.50597894,0.044110004,-0.094724484,-0.08458179,-0.10477406,-0.09135496
0.25293174,0.55490303,0.028190304,-0.116081715,-0.06614369,-0.053949825,-0.099063955
0.2466683,0.55905354,-0.0016572427,-0.104372896,-0.10888153,-0.08666208,-0.06901589
0.27778518,0.49817082,0.02116715,-0.107646696,-0.11789138,-0.0974166,-0.16198198
0.2542758,0.55714935,0.02917484,-0.09984965,-0.12268085,-0.08143977,-0.07298429
0.27791616,0.52167666,0.034317665,-0.111150146,-0.06589697,-0.10737271,-0.07935479
0.28219357,0.55517834,0.015730351,-0.12836264,-0.11844117,-0.07921873,-0.13439536
0.30903223,0.5366659,0.0275371,-0.043027572,-0.09814869,-0.07969286,-0.0790119
0.30166048,0.5384509,0.013728368,-0.1247828,-0.117060415,-0.07244404,-0.07634537
0.29643092,0.5338585,0.032792263,-0.093801305,-0.1263976,-0.10624667,-0.086195216
0.31796336,0.56133276,0.012773307,-0.13278542,-0.10319237,-0.12179953,-0.12852661
0.33399943,0.5116729,0.016149778,-0.1371988,-0.116013594,-0.10946095,-0.083604805
0.32184833,0.54784095,0.0058135004,-0.095212944,-0.11100204,-0.10280208,-0.07702553
0.3153046,0.5567754,0.02774338,-0.09359235,-0.056957603,-0.06373547,-0.10852383
0.29317388,0.5479857,0.012277886,-0.071758576,-0.088490635,-0.053088315,-0.08816588
0.30232805,0.5789086,0.046503555,-0.08890509,-0.078266636,-0.09000278,-0.103960186
0.32165125,0.52043754,0.03521384,-0.09979834,-0.08030893,-0.09661431,-0.07909458
0.395347,0.5486108,0.024397058,-0.115698844,-0.09872406,-0.103705,-0.10297697
0.40967596,0.5256379,0.008510318,-0.06662994,-0.10540455,-0.08011638,-0.10821253
0.42031187,0.55057013,0.030705417,-0.07793512,-0.09153346,-0.05274052,-0.09729808
0.43542027,0.5237383,0.035513453,-0.121339336,-0.09304373,-0.06069573,-0.12324579
0.4289468,0.5139729,0.023127465,-0.0955527,-0.107688084,-0.073552445,-0.09908362
0.44549873,0.54553896,0.050892238,-0.09332879,-0.09361287,-0.07374378,-0.08896798
0.44235045,0.50712276,0.02652611,-0.103019394,-0.11023291,-0.07946012,-0.078707136
0.40672308,0.48608607,0.034091752,-0.08056443,-0.0994306,-0.09694725,-0.091022305
0.43249515,0.5012409,0.016948672,-0.079260536,-0.10260087,-0.11062617,-0.124547236
0.45332646,0.52104723,0.026220359,-0.09959731,-0.121165045,-0.09620388,-0.06874217
0.43681645,0.5334482,-0.0048264526,-0.101296015,-0.14270179,-0.08723184,-0.066955455
0.47768578,0.50462383,0.00031615788,-0.06558913,-0.11434957,-0.12464098,-0.09331696
0.50085276,0.52541274,0.014819662,-0.07679983,-0.05937452,-0.09851563,-0.11049545
0.4990362,0.46838748,0.012996428,-0.09389636,-0.101537205,-0.11186222,-0.105975926
0.474687,0.48304337,0.01460298,-0.12781335,-0.079709806,-0.07495235,-0.09929962
0.51293606,0.48235124,0.024729649,-0.08823341,-0.13760231,-0.106107585,-0.08954005
0.4901303,0.48190308,-0.027531354,-0.08103464,-0.11516203,-0.0884319,-0.10108601
0.48431963,0.48180604,-0.02029897,-0.14996828,-0.12196764,-0.10887826,-0.11204561
0.48256573,0.48973167,0.0019797792,-0.08972066,-0.09880405,-0.062804066,-0.07429785
0.49242404,0.4626671,-0.018923955,-0.102970734,-0.046197787,-0.12865204,-0.08949118
0.494216,0.4698552,0.06127094,-0.098931484,-0.08530962,-0.084997594,-0.115561835
0.5087596,0.46154627,0.0021600125,-0.112538174,-0.060478307,-0.11993571,-0.08856435
0.5117994,0.43916893,-0.011612632,-0.09722916,-0.09935411,-0.10445203,-0.09102795
0.5117497,0.4505165,-0.022268182,-0.066299014,-0.06684146,-0.09001511,-0.10849991
0.5233919,0.44488606,-0.023495423,-0.10293896,-0.052545853,-0.088903844,-0.07010999
0.5412933,0.4392947,-0.015242798,-0.07457031,-0.096069165,-0.08929645,-0.091184005
0.53916097,0.43793744,-0.015578906,-0.10987788,-0.10453655,-0.09071627,-0.09808368
0.49302313,0.43339193,-0.10275337,-0.078444265,-0.119975604,-0.10645627,-0.09528902
0.47405496,0.41768038,-0.09894923,-0.09345307,-0.09966739,-0.096767254,-0.084607854
0.5460927,0.44610146,-0.06646597,-0.08631116,-0.09171373,-0.09271898,-0.09479533
0.5022018,0.39145285,-0.0655257,-0.09307274,-0.052596733,-0.0893086,-0.094826676
0.5270367,0.3944943,-0.088037945,-0.08024612,-0.118978105,-0.09439223,-0.07175932
0.5099817,0.4584616,-0.11976532,-0.14429182,-0.09174688,-0.078348316,-0.12130821
0.49905512,0.029501086,-0.08203024,-0.12119681,-0.12908646,-0.090932555,-0.11783136
0.5474932,0.022600858,-0.061573505,-0.08431754,-0.10119441,-0.088632636,-0.07711989
0.5532745,0.063746706,-0.06512107,-0.13338746,-0.08628879,-0.10016974,-0.044199698
0.52784646,0.006862366,-0.077684395,-0.102984525,-0.08212125,-0.11342175,-0.074843004
0.4886987,0.043013442,-0.06377937,-0.09331464,-0.08044736,-0.08914725,-0.054943647
0.5305949,0.08991634,-0.09101374,-0.108644225,-0.08413334,-0.0679325,-0.10076886
0.5502133,0.015349028,-0.07937165,-0.10576494,-0.080325276,-0.08305649,-0.10467534
0.51351345,0.005823558,-0.105400205,-0.08635305,-0.09086991,-0.108134575,-0.08265403
0.5473302,0.014661754,-0.08578906,-0.071448475,-0.1125917,-0.07533957,-0.07256139
0.5437849,0.061762765,-0.06489206,-0.11065173,-0.12851588,-0.098185085,-0.117713764
0.5559617,0.06540921,-0.103118286,-0.10283098,-0.10226358,-0.07703674,-0.09559419
0.54690903,0.03174817,-0.108404465,-0.105800815,-0.093867905,-0.09855151,-0.09171594
0.5250542,0.05471888,-0.0890703,-0.13944767,-0.06594144,-0.08395395,-0.10459748
0.568302,0.06788313,-0.095396504,-0.08802902,-0.092875294,-0.10123321,-0.102107696
0.5409117,0.0748173,-0.0777222,-0.07201079,-0.09463653,-0.1005662,-0.07384376
0.5431047,0.03310528,-0.09961095,-0.07021289,-0.08283521,-0.12187106,-0.08115207
0.5244111,-0.009066288,-0.056016278,-0.107800394,-0.09578531,-0.08014357,-0.07441604
0.5334936,0.019446582,-0.11601663,-0.11525706,-0.07401226,-0.08281971,-0.0834856
0.52380335,0.02619925,-0.064985156,-0.089627735,-0.050473176,-0.081530996,-0.10752498
0.53703827,0.028398206,-0.1051923,-0.07330984,-0.046079606,-0.0843887,-0.08143325
0.573587,0.028632246,-0.12564915,-0.0866325,-0.08778869,-0.10497451,-0.10877136
0.51062864,0.05355091,-0.084804915,-0.083776325,-0.08282457,-0.07024443,-0.09579749
0.50436777,0.055416644,-0.09448622,-0.06655744,-0.057816938,-0.069538474,-0.11011903
0.5644936,0.025221474,-0.111416616,-0.10400716,-0.09222367,-0.10498918,-0.10144218
0.5291742,0.049323693,-0.12268107,-0.09345293,-0.07546969,-0.07841105,0.26813772
0.51812935,0.0331788,-0.08904858,-0.056189254,-0.11158457,-0.07138154,0.26391798
0.55031914,0.025960172,-0.069191195,-0.092644155,-0.09492472,-0.0981099,0.26201677
0.5152796,0.04141869,-0.07683417,-0.113879986,-0.06541095,-0.09445396,0.30891854
0.56164414,0.023324262,-0.087223165,-0.10174441,-0.10272121,-0.07767503,0.29012138
0.5362762,0.061600905,-0.07860313,-0.10694369,-0.09074111,-0.118386686,0.28817117
0.5104155,-0.009783643,-0.08854591,-0.08085838,-0.119485825,-0.109771974,0.283162
0.5606388,0.0071959062,-0.1164164,-0.10574086,-0.04770655,-0.107617415,0.27331197
0.5025608,0.013458942,-0.11605884,-0.08222027,-0.0623804,-0.12356729,0.3121124
0.5265637,0.023244036,-0.09152213,-0.102180056,-0.08369676,-0.06575996,0.294648
0.5146193,0.03825594,-0.090488374,-0.12974288,-0.07712505,-0.12703794,0.34196776
0.53144556,0.010827026,-0.07007096,-0.08095822,-0.079172656,-0.0802284,0.33368528
0.5332847,-0.018734382,-0.071758606,-0.08393542,-0.059218455,-0.07067102,0.36948296
0.49920562,0.02493309,-0.07461487,-0.07636237,-0.09709352,-0.092589445,0.424411
0.4798763,0.021532422,-0.09213478,-0.09998887,-0.071883775,-0.09989648,0.41275322
0.5003922,-0.034075208,-0.11395255,-0.101930395,-0.06479117,-0.08168265,0.39684168
0.47375634,0.002993341,-0.07790723,-0.07811931,-0.06184213,-0.086111985,0.4575443
0.5235671,-0.030446751,-0.075453185,-0.05557618,-0.13114399,-0.065886475,0.42221975
0.4818905,-0.013670604,-0.1335339,-0.08553991,-0.09774876,-0.1383337,0.44663247
0.4675865,-0.020187285,-0.10225551,-0.077077046,-0.10595216,-0.10394289,0.49468288
0.4741934,0.012281284,-0.099194095,-0.091804765,-0.08238124,-0.07414147,0.4796334
0.43903887,-0.0033592049,-0.08280905,-0.11604867,-0.12549667,-0.08416711,0.48122838
0.44190657,-0.033217836,-0.10104511,-0.06562931,-0.12589036,-0.069937214,0.49813753
0.48058152,0.008267185,-0.08554122,-0.06661024,-0.041376628,-0.07953813,0.5030128
0.4385478,-0.11325407,-0.08878865,-0.07036247,-0.07222416,-0.087272696,0.5219101
0.4257391,-0.0777739,-0.08755916,-0.08801508,-0.08195599,-0.090421945,0.48346385
0.45228243,-0.10045341,-0.09850108,-0.072232075,-0.076899745,-0.037672095,0.49298513
0.4600171,-0.09128256,-0.096748725,-0.06609379,-0.0810422,-0.053270098,0.48687583
0.44531858,-0.07367824,-0.105368994,-0.05136048,-0.06381664,-0.07385355,0.5092661
0.44538108,-0.073128104,-0.07595575,-0.06378657,-0.09620598,-0.08198781,0.511662
0.4047302,-0.056609966,-0.071927294,-0.08207292,-0.07961705,-0.07258669,0.48338294
0.3857226,-0.08478549,-0.09855277,-0.10930548,-0.07859199,-0.06660372,0.5093666
0.09035458,-0.076801285,-0.052517496,-0.07981713,-0.10386746,-0.074553765,0.55497545
0.053398687,-0.09147375,-0.089011036,-0.077587456,-0.057179347,-0.09774661,0.5346105
0.05432875,-0.07886674,-0.051902823,-0.068325944,-0.09142007,-0.046816323,0.547351
0.08537132,-0.073503174,-0.095135435,-0.055215057,-0.061944462,-0.07736873,0.5337312
0.06936314,-0.08404428,-0.12260964,-0.08398109,-0.079779826,-0.041799482,0.5012807
0.06675665,-0.11793711,-0.07381815,-0.039842356,-0.049190406,-0.07811915,0.5391107
0.10030872,-0.07501554,-0.07667406,-0.1168307,-0.102472536,-0.08655802,0.56495774
0.043477707,-0.07413542,-0.080738775,-0.073039815,-0.10312183,-0.05374385,0.52262926
0.074214086,-0.09481066,-0.09405184,-0.0971776,-0.099321105,-0.07518345,0.5632808
0.056076784,-0.10667431,-0.08167802,-0.119131014,-0.07832067,-0.07831812,0.51607794
0.059557837,-0.051247224,-0.09098999,-0.084800296,-0.049935438,-0.10477209,0.5520698
0.08397528,-0.070712976,-0.08658888,-0.10968535,-0.04868002,-0.067337535,0.5638841
0.062753215,-0.08489945,-0.06348518,-0.083546385,-0.1265172,-0.09018403,0.54785514
0.06252392,-0.102833286,-0.07640828,-0.07939724,-0.075098485,-0.089048445,0.60442615
0.07234079,-0.09630258,-0.06766725,-0.057495452,-0.14412536,-0.08967726,0.54576766
0.042695615,-0.053586997,-0.08427618,-0.109790504,-0.06373817,0.28186107,0.54449314
0.032286152,-0.07665695,-0.08625054,-0.06124129,-0.057046805,0.24900119,0.5603565
0.027221741,-0.0901922,-0.10225011,-0.077218845,-0.07998534,0.28200197,0.54114753
0.007810538,-0.068755805,-0.08635032,-0.058372606,-0.07726996,0.31221437,0.5271759
0.087253995,-0.095005564,-0.14513989,-0.087352626,-0.077244826,0.27396306,0.5335803
0.023030592,-0.048467636,-0.09028894,-0.10512939,-0.094173335,0.30847737,0.57000023
0.039607596,-0.05119426,-0.079887755,-0.10260026,-0.06961616,0.2984089,0.54782444
0.037407603,-0.08734642,-0.06674147,-0.10385109,-0.0826431,0.30885193,0.58682287
0.047976803,-0.0903519,-0.08315205,-0.06822221,-0.05917266,0.35578766,0.5425938
0.057002105,-0.12990361,-0.07058747,-0.048002504,-0.07981348,0.2953018,0.56404227
0.056729734,-0.10693391,-0.12089807,-0.08860132,-0.09452275,0.34911743,0.5582406
0.02666614,-0.10385194,-0.078199275,-0.064479835,-0.10777983,0.32960403,0.5368712
0.033767525,-0.074117884,-0.11041175,-0.107290536,-0.11410299,0.33382997,0.52616817
0.041519005,-0.083104424,-0.10074582,-0.072973326,-0.050329566,0.32723385,0.50663894
0.029626539,-0.10324343,-0.08008003,-0.062965475,-0.085492514,0.44637188,0.54964954
0.06545608,-0.08171589,-0.05056733,-0.10505511,-0.069321126,0.43459964,0.55964696
0.041813664,-0.065740675,-0.06842328,-0.07992508,-0.040182818,0.43903837,0.50076145
0.045353267,-0.06504435,-0.07523652,-0.0612828,-0.08685723,0.45438048,0.5218143
0.04255179,-0.113347195,-0.0757444,-0.13402921,-0.08790334,0.45539576,0.51233405
0.051379357,-0.07767064,-0.08937795,-0.04839631,-0.077748604,0.42522916,0.53293645
0.030123658,-0.1025227,-0.08573555,-0.0677823,-0.07426723,0.46168944,0.51136154
-0.0008620566,-0.056570757,-0.06605781,-0.06027078,-0.036854304,0.49549735,0.54021007
0.03161808,-0.05867079,-0.10206093,-0.082608104,-0.043037307,0.45335647,0.5016704
0.009125696,-0.092061594,-0.062239967,-0.108555496,-0.06168354,0.4674061,0.48003203
0.010088167,-0.08916823,-0.08161747,-0.06316607,-0.044859048,0.48619902,0.4905803
0.030875,-0.08281789,-0.05708141,-0.07524435,-0.07715693,0.4855646,0.48777792
0.04238055,-0.118392594,-0.05411486,-0.07269442,-0.067353435,0.50467205,0.500265
0.01648784,-0.0663605,-0.106541544,-0.051327728,-0.07911014,0.48832983,0.47686628
0.02066735,-0.078278854,-0.08445358,-0.057580687,-0.09862933,0.50720316,0.48753518
0.046944443,-0.053159524,-0.08967358,-0.034138277,-0.048485532,0.5185751,0.45712516
0.016106253,-0.09427124,-0.10855762,-0.069225974,-0.061669085,0.5368929,0.46105003
0.06169791,-0.08442452,-0.092692725,-0.08586631,-0.07168059,0.552992,0.44506094
0.019329935,-0.10191055,-0.022954922,-0.07554837,-0.07182939,0.52684903,0.43745854
-0.028857151,-0.09160281,-0.0593268,-0.06320373,-0.1016413,0.5736254,0.47333178
0.0197466,-0.09489258,-0.03290718,-0.05093581,-0.090802446,0.53576964,0.42679265
-0.0633647,-0.051068395,-0.054405898,-0.10032855,-0.064264804,0.55940694,0.4272222
-0.044926733,-0.084687024,-0.08555865,-0.07055104,-0.08130404,0.5846384,0.4479669
-0.056991074,-0.067971185,-0.078090124,-0.03826387,-0.07480896,0.5517695,0.0876913
-0.072955735,-0.07780188,-0.058417886,-0.07499079,-0.07227974,0.52428305,0.104913026
-0.09440349,-0.09530683,-0.0611674,-0.05129729,-0.083566904,0.55613637,0.08109296
-0.07382791,-0.073013455,-0.08119429,-0.059785094,-0.08900581,0.5444438,0.058727723
-0.086386785,-0.057394307,-0.099576235,-0.05025916,-0.10162353,0.5533393,0.11112848
-0.080714785,-0.093259506,-0.0033490944,-0.08529953,-0.07203469,0.6004712,0.08082854
-0.05705971,-0.05264902,-0.071654275,-0.08493931,-0.056459107,0.5380518,0.06524618
-0.03515917,-0.08555168,-0.075072035,-0.068151824,-0.10142995,0.57004315,0.068594776
-0.060388837,-0.07794195,-0.06601558,-0.0989267,-0.068763226,0.54779696,0.07008912
-0.09192397,-0.057392642,-0.072860874,-0.073401116,-0.06238344,0.5603064,0.06077833
-0.05883732,-0.0809981,-0.0652748,-0.06267184,-0.08752098,0.5822547,0.036962047
-0.043518852,-0.06669998,-0.041712534,-0.031758767,-0.039008643,0.57440954,0.09593214
-0.079368286,-0.07346644,-0.0696636,-0.059118263,-0.07488693,0.56402385,0.061834052
-0.069573164,-0.06430546,-0.090147026,-0.05438825,-0.06891801,0.5557966,0.06476862
-0.066318296,-0.11422684,-0.06984494,-0.043322545,0.2842155,0.57517207,0.10144499
-0.08202832,-0.10292399,-0.07561839,-0.08562351,0.25846446,0.60285205,0.0449558
-0.053082097,-0.053728368,-0.037569728,-0.06934936,0.32038346,0.55030906,0.07042715
-0.06818308,-0.04502049,-0.04234174,-0.017255867,0.28731403,0.60599744,0.04012449
-0.05708895,-0.08368933,-0.06332909,-0.06706204,0.3077957,0.59097266,0.061001576
-0.08294398,-0.07007471,-0.09076886,-0.042865526,0.3304649,0.5933792,0.057180215
-0.07365693,-0.059013378,-0.08942561,-0.045633003,0.35359746,0.57096153,0.06748993
-0.050172832,-0.050756108,-0.064317994,-0.09418273,0.30852884,0.58680797,0.07432857
-0.0717889,-0.10488578,-0.057605777,-0.05812265,0.3268246,0.54159355,0.037022192
-0.029503822,-0.0817639,-0.07153556,-0.06110815,0.36890647,0.5465871,0.07535429
-0.071745776,-0.07040464,-0.07335644,-0.057153877,0.35591164,0.5732357,0.07514003
-0.058968402,-0.049399294,-0.07531808,-0.07854435,0.36531386,0.56160223,0.038722433
-0.044518426,-0.013201632,-0.06363812,-0.08550863,0.3359932,0.55027884,0.041885026
-0.0912448,-0.067437604,-0.11053273,-0.07239769,0.3544278,0.5005516,0.030387718
-0.09780002,-0.09072339,-0.08461037,-0.06453974,0.4397597,0.53904873,0.032388173
-0.09280243,-0.054243937,-0.074830316,-0.03858961,0.43295315,0.52122974,0.0126147205
-0.036742195,-0.03557396,-0.037843812,-0.025647659,0.42345652,0.55133337,0.050387893
-0.072734736,-0.059537288,-0.07797384,-0.033765614,0.453415,0.53419167,-0.0080492925
-0.010236402,-0.07953336,-0.057791024,-0.044196684,0.49722603,0.521803,0.017101329
-0.072387286,-0.041942455,-0.056571476,-0.08118914,0.47767532,0.5833843,0.028174642
-0.05711238,-0.047532495,-0.034845077,-0.068981335,0.51016366,0.547251,0.053117294
-0.02966142,-0.081025235,-0.035252072,-0.0563051,0.49227685,0.5433721,0.014209533
-0.020081112,-0.05257446,-0.061353028,-0.07285175,0.47925168,0.5618735,0.031634964
-0.018671393,-0.039956152,-0.06941116,-0.048357353,0.5257767,0.52925634,0.019393008
-0.035431784,-0.035961308,-0.07287577,-0.045189388,0.50997674,0.49298733,0.037821922
-0.038814653,-0.060624883,-0.06411717,-0.048570104,0.53029877,0.48565453,0.02431105
-0.047141317,-0.066153444,-0.06767252,-0.038489167,0.49485138,0.5175305,-0.042387668
-0.04311975,-0.034141496,-0.04761442,-0.0767788,0.54197174,0.45168117,-0.06969967
-0.06940497,-0.08258446,-0.049975056,-0.039724678,0.5473744,0.48576605,-0.07866175
-0.074438676,-0.049303114,-0.046238676,-0.07198761,0.5364119,0.43817216,-0.050732136
-0.057834815,-0.085167855,-0.03258165,-0.076586045,0.5189165,0.47766608,-0.067521885
